-1.0068942
-0.9813594
-0.80262053
-0.80262053
-0.7004836
-0.6238816
-0.57281196
-0.47067508
-0.47067508
-0.39407304
-0.29193616
-0.29193616
-0.24086651
-0.16426447
-0.113194816
-0.113194816
-0.113194816
-0.08766243
-0.08766243
-0.113194816
-0.16426447
-0.21533412
-0.13872965
-0.13872965
-0.16426447
-0.29193616
-0.26640135
-0.24086651
-0.26640135
-0.3685382
-0.317471
-0.3685382
-0.47067508
-0.5217447
-0.3685382
-0.3430034
-0.44514024
-0.4962099
-0.47067508
-0.44514024
-0.44514024
-0.4962099
-0.41960785
-0.3430034
-0.44514024
-0.5217447
-0.5217447
-0.41960785
-0.41960785
-0.5217447
-0.5217447
-0.4962099
-0.41960785
-0.4962099
-0.57281196
-0.4962099
-0.5472771
-0.59834677
-0.649414
-0.59834677
-0.57281196
-0.6238816
-0.6749488
-0.649414
-0.6238816
-0.6238816
-0.59834677
-0.59834677
-0.57281196
-0.6238816
-0.7260185
-0.7260185
-0.6749488
-0.649414
-0.6749488
-0.649414
-0.59834677
-0.6238816
-0.77708566
-0.85369015
-0.77708566
-0.75155085
-0.80262053
-0.8792226
-0.80262053
-0.77708566
-0.85369015
-0.9047574
-0.80262053
-0.7260185
-0.75155085
-0.7260185
-0.6749488
-0.649414
-0.7004836
-0.77708566
-0.7260185
-0.649414
-0.75155085
-0.77708566
-0.82815534
-0.80262053
-0.649414
-0.649414
-0.7260185
-0.75155085
-0.7004836
-0.77708566
-0.85369015
-0.7260185
-0.7004836
-0.75155085
-0.80262053
-0.6749488
-0.6749488
-0.649414
-0.57281196
-0.59834677
-0.5472771
-0.57281196
-0.57281196
-0.41960785
-0.036592774
0.806037
2.9509137
4.5595713
4.661708
1.7252688
1.4699279
1.5720648
1.699734
1.7508037
1.8529406
1.8529406
1.8274057
1.7252688
1.623132
1.5720648
1.5975971
1.6486667
1.5465299
1.2401193
0.70390016
0.244283
-0.16426447
-0.85369015
-1.5175786
-1.6707851
-1.4154418
-1.2622377
-1.3133049
-1.3388397
-1.5431135
-1.6707851
-1.6197155
-1.4665114
-1.3899069
-1.2367028
-1.1601008
-1.0834963
-1.0579638
-1.1090311
-1.28777
-1.3133049
-1.3643745
-1.2367028
-1.1856332
-1.134566
-1.1856332
-1.4154418
-1.4920462
-1.4154418
-1.28777
-1.2111679
-1.2622377
-1.2367028
-1.2111679
-1.1856332
-1.3899069
-1.4409765
-1.3643745
-1.4409765
-1.4665114
-1.5686482
-1.5175786
-1.5431135
-1.6197155
-1.5941831
-1.3643745
-1.2622377
-1.28777
-1.3133049
-1.3643745
-1.2367028
-1.1856332
-1.2111679
-1.2367028
-1.134566
-1.0579638
-0.9302922
-0.82815534
-0.77708566
-0.7004836
-0.649414
-0.47067508
-0.26640135
-0.1897993
-0.21533412
-0.0621276
0.09107892
0.11661131
0.06554409
0.06554409
0.11661131
0.16768096
0.14214614
0.11661131
0.11661131
0.11661131
0.014474442
-0.0621276
0.014474442
-0.011057948
-0.13872965
-0.26640135
-0.1897993
-0.16426447
-0.24086651
-0.39407304
-0.44514024
-0.39407304
-0.3685382
-0.41960785
-0.44514024
-0.3685382
-0.3685382
-0.47067508
-0.57281196
-0.6238816
-0.57281196
-0.5472771
-0.5472771
-0.4962099
-0.4962099
-0.5217447
-0.649414
-0.75155085
-0.8792226
-1.0579638
-1.2111679
-1.3133049
-1.3388397
-1.5431135
-1.772922
-1.9261261
-1.849524
-1.7473872
-1.6197155
-1.3388397
-1.0834963
-0.9813594
-0.75155085
-0.24086651
0.57622844
1.2656541
1.6486667
1.9040102
2.108284
1.8018733
0.9847759
-0.5472771
-2.2070043
-3.33051
-3.815662
-3.9688659
-4.1986747
-4.2242093
-3.5858533
-3.1517708
-2.666619
-2.1814694
-1.9261261
-1.7984568
-1.5941831
-1.3643745
-1.3133049
-1.3388397
-1.3133049
-1.2622377
-1.1856332
-1.1856332
-1.2111679
-1.1856332
-1.1601008
-1.1601008
-1.1856332
-1.134566
-1.0579638
-1.0068942
-1.0579638
-0.9813594
-0.95582706
-0.8792226
-0.8792226
-0.8792226
-0.75155085
-0.77708566
-0.7260185
-0.77708566
-0.6749488
-0.649414
-0.649414
-0.6749488
-0.59834677
-0.59834677
-0.59834677
-0.6749488
-0.649414
-0.59834677
-0.649414
-0.77708566
-0.75155085
-0.7004836
-0.7260185
-0.75155085
-0.77708566
-0.7004836
-0.7004836
-0.7260185
-0.7260185
-0.6238816
-0.57281196
-0.59834677
-0.59834677
-0.5472771
-0.4962099
-0.5217447
-0.57281196
-0.5472771
-0.59834677
-0.59834677
-0.6749488
-0.6749488
-0.649414
-0.649414
-0.7260185
-0.7004836
-0.7004836
-0.7004836
-0.7260185
-0.7260185
-0.7004836
-0.75155085
-0.77708566
-0.77708566
-0.75155085
-0.77708566
-0.85369015
-0.8792226
-0.85369015
-0.82815534
-0.8792226
-0.85369015
-0.85369015
-0.82815534
-0.82815534
-0.9047574
-0.9302922
-0.85369015
-0.9813594
-0.9813594
-0.85369015
-0.77708566
-0.77708566
-0.82815534
-0.82815534
-0.80262053
-0.7260185
-0.7260185
-0.7004836
-0.649414
-0.649414
-0.7260185
-0.7004836
-0.6749488
-0.649414
-0.7260185
-0.82815534
-0.82815534
-0.85369015
-0.9302922
-0.95582706
-0.85369015
-0.8792226
-0.8792226
-0.95582706
-0.9302922
-0.9047574
-0.9302922
-1.0068942
-0.95582706
-0.9813594
-0.8792226
-0.9047574
-0.95582706
-0.9047574
-0.8792226
-0.9813594
-0.95582706
-0.9047574
-0.9047574
-0.95582706
-0.9302922
-0.9302922
-0.8792226
-0.95582706
-0.9813594
-0.9047574
-0.85369015
-0.95582706
-1.0579638
-1.0324291
-0.9302922
-0.95582706
-1.0068942
-0.9813594
-0.9302922
-0.9302922
-0.9813594
-0.9813594
-0.9047574
-0.9813594
-0.9813594
-1.0324291
-0.95582706
-0.9302922
-0.9813594
-1.0324291
-0.9813594
-0.9302922
-0.9813594
-1.0579638
-0.9813594
-0.9302922
-0.95582706
-0.9813594
-0.9302922
-0.9047574
-0.8792226
-0.9302922
-0.9302922
-0.9302922
-0.8792226
-0.9047574
-0.9047574
-0.82815534
-0.80262053
-0.82815534
-0.8792226
-0.80262053
-0.75155085
-0.77708566
-0.80262053
-0.77708566
-0.7004836
-0.75155085
-0.77708566
-0.7004836
-0.6238816
-0.57281196
-0.4962099
-0.21533412
0.29535267
1.7252688
4.304228
4.8149123
4.4318995
1.5465299
1.5209951
1.6486667
1.7763385
1.8018733
1.8784753
1.9295425
1.9295425
1.8784753
1.8274057
1.8784753
1.9806122
1.9550774
1.9295425
1.7508037
1.444393
1.1635172
0.8315718
0.29535267
-0.24086651
-0.39407304
-0.24086651
-0.08766243
-0.13872965
-0.16426447
-0.4962099
-0.77708566
-0.9047574
-0.85369015
-0.9302922
-1.1090311
-1.2111679
-1.134566
-1.0834963
-1.1601008
-1.3133049
-1.4409765
-1.4665114
-1.4920462
-1.4665114
-1.4154418
-1.3899069
-1.3643745
-1.3899069
-1.3643745
-1.28777
-1.28777
-1.3643745
-1.3388397
-1.3133049
-1.28777
-1.3388397
-1.3643745
-1.2622377
-1.2367028
-1.28777
-1.3643745
-1.2622377
-1.2622377
-1.2367028
-1.28777
-1.1856332
-1.1090311
-1.134566
-1.1601008
-1.0324291
-1.0068942
-1.0579638
-1.0324291
-0.95582706
-0.9047574
-0.82815534
-0.80262053
-0.75155085
-0.7260185
-0.5217447
-0.5217447
-0.47067508
-0.3430034
-0.29193616
-0.29193616
-0.21533412
-0.08766243
-0.036592774
-0.0621276
-0.036592774
0.014474442
0.14214614
0.16768096
0.11661131
0.19321579
0.19321579
0.21874818
0.19321579
0.26981783
0.29535267
0.244283
0.16768096
0.14214614
0.11661131
0.14214614
0.14214614
0.014474442
0.06554409
0.11661131
0.040009268
-0.036592774
0.014474442
0.040009268
-0.0621276
-0.113194816
-0.113194816
-0.113194816
-0.113194816
-0.1897993
-0.1897993
-0.13872965
-0.1897993
-0.26640135
-0.24086651
-0.16426447
-0.21533412
-0.24086651
-0.29193616
-0.29193616
-0.29193616
-0.3685382
-0.39407304
-0.3430034
-0.3685382
-0.41960785
-0.44514024
-0.3685382
-0.3685382
-0.39407304
-0.3430034
-0.26640135
-0.29193616
-0.26640135
-0.3430034
-0.26640135
-0.24086651
-0.3430034
-0.3685382
-0.39407304
-0.3430034
-0.39407304
-0.4962099
-0.47067508
-0.47067508
-0.57281196
-0.7004836
-0.7004836
-0.57281196
-0.6238816
-0.649414
-0.7004836
-0.649414
-0.6238816
-0.75155085
-0.77708566
-0.7260185
-0.77708566
-0.75155085
-0.75155085
-0.6749488
-0.6238816
-0.649414
-0.80262053
-0.77708566
-0.7004836
-0.75155085
-0.75155085
-0.75155085
-0.7260185
-0.7004836
-0.77708566
-0.80262053
-0.7260185
-0.7260185
-0.75155085
-0.77708566
-0.6749488
-0.649414
-0.7004836
-0.75155085
-0.7004836
-0.6749488
-0.7260185
-0.7260185
-0.77708566
-0.649414
-0.6238816
-0.6238816
-0.5472771
-0.4962099
-0.47067508
-0.4962099
-0.41960785
-0.3685382
0.11661131
0.85710424
3.2062547
4.8915143
3.461598
1.6486667
1.2401193
1.5975971
1.699734
1.7763385
1.9040102
2.0572143
2.0316794
1.8274057
1.7763385
1.8529406
1.8784753
1.7763385
1.623132
1.4699279
1.1635172
0.6783653
0.26981783
-0.317471
-0.5217447
-1.2111679
-1.1601008
-0.9047574
-0.80262053
-0.8792226
-1.0579638
-1.28777
-1.3133049
-1.28777
-1.28777
-1.2367028
-1.1090311
-1.0579638
-1.0579638
-1.0579638
-1.0834963
-1.0834963
-1.28777
-1.3388397
-1.1601008
-1.0068942
-1.0324291
-1.134566
-1.1856332
-1.1856332
-0.9813594
-0.9813594
-0.95582706
-0.9047574
-0.95582706
-0.95582706
-1.0324291
-1.0324291
-1.0068942
-1.0324291
-1.0068942
-0.95582706
-0.9047574
-0.8792226
-0.9302922
-0.9047574
-0.8792226
-0.85369015
-0.80262053
-0.75155085
-0.6238816
-0.6749488
-0.6749488
-0.57281196
-0.5217447
-0.47067508
-0.5472771
-0.44514024
-0.26640135
-0.113194816
-0.0621276
0.014474442
0.11661131
0.16768096
0.19321579
0.26981783
0.3719547
0.44855675
0.4996264
0.44855675
0.6272981
0.6272981
0.55069363
0.47409156
0.4230219
0.44855675
0.44855675
0.4996264
0.55069363
0.57622844
0.47409156
0.32088506
0.32088506
0.3719547
0.39748952
0.29535267
0.21874818
0.32088506
0.29535267
0.21874818
0.16768096
0.14214614
0.19321579
0.16768096
0.21874818
0.244283
0.19321579
0.19321579
0.16768096
0.244283
0.244283
0.06554409
-0.036592774
0.06554409
0.16768096
0.29535267
0.14214614
0.06554409
0.14214614
0.19321579
0.14214614
0.014474442
0.014474442
0.040009268
0.040009268
0.11661131
0.19321579
0.19321579
0.11661131
0.014474442
0.014474442
0.06554409
0.014474442
-0.036592774
-0.0621276
0.014474442
0.040009268
-0.036592774
-0.0621276
-0.011057948
0.26981783
0.19321579
0.06554409
0.040009268
0.09107892
0.014474442
-0.113194816
-0.113194816
-0.16426447
-0.21533412
-0.21533412
-0.08766243
0.014474442
0.014474442
0.06554409
0.09107892
0.09107892
0.06554409
-0.011057948
-0.011057948
0.040009268
0.014474442
-0.113194816
-0.1897993
-0.1897993
-0.24086651
-0.1897993
-0.13872965
-0.08766243
-0.011057948
-0.113194816
-0.036592774
0.14214614
0.19321579
0.14214614
0.09107892
0.19321579
0.19321579
0.14214614
0.21874818
0.34641987
0.4230219
0.26981783
0.11661131
0.19321579
0.26981783
0.14214614
-0.011057948
-0.011057948
0.014474442
0.06554409
-0.011057948
-0.036592774
0.040009268
0.11661131
0.11661131
0.09107892
0.14214614
0.19321579
0.244283
0.34641987
0.6783653
1.2656541
2.9509137
4.9936533
4.661708
2.899844
2.159351
2.235953
2.3891597
2.5423663
2.721105
2.8487768
2.9764462
3.0785854
3.1807222
3.1807222
3.3083916
3.5126653
3.6658719
3.6148021
3.4871328
3.4360633
3.1807222
2.644503
2.159351
1.8018733
1.2656541
0.44855675
-0.08766243
-0.13872965
-0.036592774
-0.011057948
-0.1897993
-0.3685382
-0.4962099
-0.80262053
-0.9302922
-0.9047574
-0.82815534
-0.649414
-0.6238816
-0.649414
-0.6238816
-0.6238816
-0.649414
-0.80262053
-0.77708566
-0.75155085
-0.80262053
-0.75155085
-0.7004836
-0.6238816
-0.59834677
-0.59834677
-0.4962099
-0.5217447
-0.5472771
-0.57281196
-0.57281196
-0.5217447
-0.5217447
-0.57281196
-0.59834677
-0.6238816
-0.5472771
-0.59834677
-0.6749488
-0.57281196
-0.57281196
-0.6749488
-0.6749488
-0.649414
-0.649414
-0.6749488
-0.7260185
-0.6749488
-0.57281196
-0.57281196
-0.57281196
-0.4962099
-0.44514024
-0.39407304
-0.3685382
-0.3685382
-0.24086651
-0.24086651
-0.21533412
-0.13872965
-0.08766243
0.06554409
0.014474442
0.11661131
0.19321579
0.32088506
0.244283
0.244283
0.39748952
0.44855675
0.44855675
0.39748952
0.4996264
0.4996264
0.44855675
0.4230219
0.44855675
0.4996264
0.4230219
0.34641987
0.34641987
0.44855675
0.34641987
0.244283
0.21874818
0.29535267
0.21874818
0.19321579
0.11661131
0.11661131
0.19321579
0.11661131
0.11661131
0.14214614
0.19321579
0.14214614
0.09107892
0.11661131
0.16768096
0.11661131
0.06554409
0.09107892
0.09107892
0.09107892
0.06554409
-0.82815534
-0.77708566
-0.7004836
-0.649414
-0.47067508
-0.26640135
-0.1897993
-0.21533412
-0.0621276
0.09107892
0.11661131
0.06554409
0.06554409
0.11661131
0.16768096
0.14214614
0.11661131
0.11661131
0.11661131
0.014474442
-0.0621276
0.014474442
-0.011057948
-0.13872965
-0.26640135
-0.1897993
-0.16426447
-0.24086651
-0.39407304
-0.44514024
-0.39407304
-0.3685382
-0.41960785
-0.44514024
-0.3685382
-0.3685382
-0.47067508
-0.57281196
-0.6238816
-0.57281196
-0.5472771
-0.5472771
-0.4962099
-0.4962099
-0.5217447
-0.649414
-0.75155085
-0.8792226
-1.0579638
-1.2111679
-1.3133049
-1.3388397
-1.5431135
-1.772922
-1.9261261
-1.849524
-1.7473872
-1.6197155
-1.3388397
-1.0834963
-0.9813594
-0.75155085
-0.24086651
0.57622844
1.2656541
1.6486667
1.9040102
2.108284
1.8018733
0.9847759
-0.5472771
-2.2070043
-3.33051
-3.815662
-3.9688659
-4.1986747
-4.2242093
-3.5858533
-3.1517708
-2.666619
-2.1814694
-1.9261261
-1.7984568
-1.5941831
-1.3643745
-1.3133049
-1.3388397
-1.3133049
-1.2622377
-1.1856332
-1.1856332
-1.2111679
-1.1856332
-1.1601008
-1.1601008
-1.1856332
-1.134566
-1.0579638
-1.0068942
-1.0579638
-0.9813594
-0.95582706
-0.8792226
-0.8792226
-0.8792226
-0.75155085
-0.77708566
-0.7260185
-0.77708566
-0.6749488
-0.649414
-0.649414
-0.6749488
-0.59834677
-0.59834677
-0.59834677
-0.6749488
-0.649414
-0.59834677
-0.649414
-0.77708566
-0.75155085
-0.7004836
-0.7260185
-0.75155085
-0.77708566
-0.7004836
-0.7004836
-0.7260185
-0.7260185
-0.6238816
-0.57281196
-0.59834677
-0.59834677
-0.5472771
-0.4962099
-0.5217447
-0.57281196
-0.5472771
-0.59834677
-0.59834677
-0.6749488
-0.6749488
-0.649414
-0.649414
-0.7260185
-0.7004836
-0.7004836
-0.7004836
-0.7260185
-0.7260185
-0.7004836
-0.75155085
-0.77708566
-0.77708566
-0.75155085
-0.77708566
-0.85369015
-0.8792226
-0.85369015
-0.82815534
-0.8792226
-0.85369015
-0.85369015
-0.82815534
-0.82815534
-0.9047574
-0.9302922
-0.85369015
-0.9813594
-0.9813594
-0.85369015
-0.77708566
-0.77708566
-0.82815534
-0.82815534
-0.80262053
-0.7260185
-0.7260185
-0.7004836
-0.649414
-0.649414
-0.7260185
-0.7004836
-0.6749488
-0.649414
-0.7260185
-0.82815534
-0.82815534
-0.85369015
-0.9302922
-0.95582706
-0.85369015
-0.8792226
-0.8792226
-0.95582706
-0.9302922
-0.9047574
-0.9302922
-1.0068942
-0.95582706
-0.7004836
-0.44514024
-0.5217447
-0.80262053
-1.0068942
-1.0834963
-1.134566
-1.1856332
-1.1601008
-1.134566
-1.1856332
-1.2111679
-1.2111679
-1.1601008
-1.2367028
-1.3388397
-1.3899069
-1.3899069
-1.28777
-1.2622377
-1.3133049
-1.2622377
-1.1856332
-1.1856332
-1.28777
-1.2622377
-1.1601008
-1.1856332
-1.28777
-1.3133049
-1.1856332
-1.2367028
-1.3388397
-1.3643745
-1.28777
-1.3388397
-1.4409765
-1.4409765
-1.3899069
-1.3133049
-1.4409765
-1.3899069
-1.3133049
-1.2622377
-1.3133049
-1.3133049
-1.2622377
-1.1601008
-1.1856332
-1.0834963
-1.0324291
-0.9047574
-0.9047574
-0.9047574
-0.80262053
-0.7004836
-0.6238816
-0.6238816
-0.5217447
-0.47067508
-0.3685382
-0.3685382
-0.3430034
-0.1897993
-0.13872965
-0.13872965
-0.113194816
-0.08766243
-0.0621276
-0.113194816
-0.113194816
-0.113194816
-0.08766243
-0.08766243
-0.1897993
-0.1897993
-0.13872965
-0.16426447
-0.24086651
-0.24086651
-0.1897993
-0.24086651
-0.317471
-0.29193616
-0.24086651
-0.29193616
-0.39407304
-0.317471
-0.317471
-0.317471
-0.39407304
-0.39407304
-0.3430034
-0.317471
-0.39407304
-0.39407304
-0.3430034
-0.26640135
-0.3430034
-0.39407304
-0.3685382
-0.26640135
-0.317471
-0.3685382
-0.3430034
-0.29193616
-0.26640135
-0.3685382
-0.3685382
-0.29193616
-0.29193616
-0.3430034
-0.3430034
-0.24086651
-0.29193616
-0.317471
-0.44514024
-0.3685382
-0.317471
-0.39407304
-0.47067508
-0.47067508
-0.41960785
-0.47067508
-0.5217447
-0.57281196
-0.41960785
-0.44514024
-0.57281196
-0.4962099
-0.44514024
-0.44514024
-0.5472771
-0.4962099
-0.47067508
-0.47067508
-0.4962099
-0.57281196
-0.5217447
-0.57281196
-0.5472771
-0.59834677
-0.57281196
-0.59834677
-0.57281196
-0.57281196
-0.5472771
-0.5217447
-0.5217447
-0.59834677
-0.57281196
-0.5217447
-0.57281196
-0.57281196
-0.59834677
-0.4962099
-0.5472771
-0.57281196
-0.5472771
-0.5217447
-0.5217447
-0.57281196
-0.59834677
-0.59834677
-0.59834677
-0.649414
-0.649414
-0.6238816
-0.6238816
-0.6238816
-0.5472771
-0.44514024
-0.41960785
-0.39407304
-0.41960785
-0.3685382
-0.26640135
-0.21533412
-0.29193616
-0.29193616
-0.24086651
-0.24086651
-0.317471
-0.21533412
-0.13872965
0.014474442
0.21874818
1.1890496
3.6148021
4.5595713
2.6700354
1.3422562
1.444393
1.7252688
1.8018733
1.7508037
1.9295425
2.0316794
2.0061471
1.9806122
1.9806122
2.33809
2.3891597
2.3636248
2.3891597
2.2870228
1.9040102
1.5465299
1.2401193
0.75496733
0.16768096
-0.16426447
-0.113194816
0.040009268
0.040009268
-0.24086651
-0.57281196
-0.80262053
-0.95582706
-1.1090311
-1.1601008
-1.1090311
-1.1090311
-1.134566
-1.28777
-1.3133049
-1.2367028
-1.3643745
-1.4665114
-1.4665114
-1.4154418
-1.3643745
-1.5175786
-1.4665114
-1.3899069
-1.28777
-1.3899069
-1.3388397
-1.28777
-1.2111679
-1.28777
-1.28777
-1.2367028
-1.2111679
-1.2111679
-1.2367028
-1.1856332
-1.134566
-1.1856332
-1.2622377
-1.2622377
-1.134566
-1.1090311
-1.1856332
-1.0579638
-1.0579638
-1.0579638
-1.1090311
-0.9813594
-0.85369015
-0.85369015
-0.8792226
-0.75155085
-0.6749488
-0.6749488
-0.6749488
-0.59834677
-0.47067508
-0.47067508
-0.5217447
-0.44514024
-0.317471
-0.21533412
-0.16426447
-0.24086651
-0.21533412
-0.036592774
-0.13872965
-0.16426447
-0.16426447
-0.0621276
-0.113194816
-0.1897993
-0.113194816
-0.0621276
-0.0621276
-0.16426447
-0.21533412
-0.24086651
-0.24086651
-0.317471
-0.39407304
-0.3430034
-0.29193616
-0.3685382
-0.44514024
-0.47067508
-0.47067508
-0.5217447
-0.5217447
-0.4962099
-0.3685382
-0.3685382
-0.47067508
-0.41960785
-0.317471
-0.3685382
-0.44514024
-0.41960785
-0.39407304
-0.44514024
-0.5472771
-0.59834677
-0.5472771
-0.47067508
-0.5472771
-0.47067508
-0.47067508
-0.44514024
-0.5217447
-0.57281196
-0.4962099
-0.47067508
-0.4962099
-0.59834677
-0.6238816
-0.5217447
-0.47067508
-0.4962099
-0.44514024
-0.44514024
-0.41960785
-0.5217447
-0.5472771
-0.5472771
-0.6238816
-0.7004836
-0.7004836
-0.59834677
-0.6238816
-0.7260185
-0.7004836
-0.649414
-0.649414
-0.7004836
-0.649414
-0.5472771
-0.57281196
-0.7260185
-0.77708566
-0.75155085
-0.6238816
-0.6749488
-0.7260185
-0.7004836
-0.649414
-0.7004836
-0.82815534
-0.7004836
-0.6749488
-0.649414
-0.75155085
-0.80262053
-0.75155085
-0.77708566
-0.82815534
-0.80262053
-0.7004836
-0.6238816
-0.7260185
-0.77708566
-0.7260185
-0.7004836
-0.7260185
-0.75155085
-0.7004836
-0.6749488
-0.75155085
-0.9047574
-0.80262053
-0.7004836
-0.75155085
-0.77708566
-0.77708566
-0.7004836
-0.6749488
-0.7260185
-0.75155085
-0.649414
-0.6238816
-0.7260185
-0.80262053
-0.77708566
-0.7004836
-0.6238816
-0.47067508
-0.317471
-0.24086651
-0.113194816
0.16768096
0.29535267
3.2573242
4.6361732
3.1041179
1.5975971
1.4699279
1.5720648
1.5465299
1.5465299
1.5720648
1.5720648
1.3933234
1.2656541
1.3422562
1.4699279
1.3933234
1.2401193
0.9592411
0.6272981
0.11661131
-0.29193616
-0.649414
-1.0324291
-1.4154418
-1.5175786
-1.4409765
-0.9813594
-1.0068942
-1.0834963
-1.28777
-1.3899069
-1.4665114
-1.4409765
-1.1601008
-0.85369015
-0.8792226
-1.0579638
-1.1856332
-1.2111679
-1.2367028
-1.28777
-1.2367028
-1.2111679
-1.1601008
-1.1856332
-1.1856332
-1.0834963
-0.95582706
-1.0068942
-1.0834963
-1.1090311
-1.0068942
-0.95582706
-1.0068942
-0.9302922
-0.95582706
-0.9047574
-0.9813594
-0.80262053
-0.77708566
-0.80262053
-0.9047574
-0.95582706
-0.82815534
-0.77708566
-0.80262053
-0.8792226
-0.77708566
-0.75155085
-0.7004836
-0.7004836
-0.649414
-0.59834677
-0.6238816
-0.6749488
-0.6749488
-0.41960785
-0.44514024
-0.4962099
-0.39407304
-0.317471
-0.26640135
-0.29193616
-0.21533412
-0.16426447
-0.16426447
-0.16426447
-0.13872965
-0.08766243
0.014474442
-0.113194816
-0.08766243
-0.036592774
0.014474442
-0.0621276
-0.13872965
-0.16426447
-0.0621276
-0.21533412
-0.26640135
-0.26640135
-0.1897993
-0.29193616
-0.3685382
-0.3430034
-0.317471
-0.29193616
-0.41960785
-0.41960785
-0.3685382
-0.39407304
-0.5472771
-0.4962099
-0.4962099
-0.41960785
-0.4962099
-0.4962099
-0.47067508
-0.47067508
-0.5217447
-0.5472771
-0.5472771
-0.4962099
-0.5217447
-0.5217447
-0.4962099
-0.41960785
-0.47067508
-0.5472771
-0.5217447
-0.44514024
-0.5217447
-0.6238816
-0.57281196
-0.5217447
-0.5472771
-0.649414
-0.649414
-0.57281196
-0.649414
-0.6238816
-0.6749488
-0.6238816
-0.6749488
-0.77708566
-0.80262053
-0.7004836
-0.7260185
-0.77708566
-0.80262053
-0.77708566
-0.77708566
-0.82815534
-0.9047574
-0.85369015
-0.77708566
-0.80262053
-0.8792226
-0.8792226
-0.82815534
-0.8792226
-0.8792226
-0.8792226
-0.82815534
-0.85369015
-0.9047574
-0.9302922
-0.85369015
-0.85369015
-0.9302922
-0.9813594
-0.9302922
-0.9047574
-0.95582706
-1.0579638
-1.0324291
-0.9302922
-0.9302922
-1.0324291
-0.9813594
-0.9302922
-0.9813594
-1.0834963
-1.0068942
-0.95582706
-0.9813594
-1.0068942
-0.95582706
-0.9047574
-0.9302922
-0.9813594
-0.9302922
-0.95582706
-0.9047574
-0.9302922
-0.95582706
-0.9302922
-0.9047574
-0.9302922
-0.9047574
-0.82815534
-0.80262053
-0.80262053
-0.9047574
-0.80262053
-0.7260185
-0.6749488
-0.59834677
-0.317471
0.34641987
2.2104208
4.482967
4.074419
1.9295425
1.1379825
1.2145845
1.3167213
1.3933234
1.5209951
1.5209951
1.5209951
1.4954603
1.4699279
1.444393
1.3422562
1.367791
1.1890496
1.0103108
0.57622844
0.11661131
-0.1897993
-0.6238816
-1.28777
-1.7473872
-1.8239892
-1.6707851
-1.5431135
-1.5175786
-1.4154418
-1.4920462
-1.6452503
-1.5941831
-1.4920462
-1.3643745
-1.2622377
-1.134566
-1.134566
-1.134566
-1.2367028
-1.3643745
-1.3899069
-1.3899069
-1.3643745
-1.4154418
-1.4154418
-1.3899069
-1.4665114
-1.4665114
-1.4665114
-1.4409765
-1.4409765
-1.4920462
-1.5431135
-1.4920462
-1.4920462
-1.5941831
-1.6707851
-1.6197155
-1.6197155
-1.6963199
-1.7984568
-1.772922
-1.6963199
-1.7984568
-1.849524
-1.8239892
-1.6963199
-1.7473872
-1.8239892
-1.7473872
-1.6707851
-1.6707851
-1.7218523
-1.5941831
-1.5175786
-1.4920462
-1.5175786
-1.4920462
-1.3388397
-1.2622377
-1.2367028
-1.0834963
-0.9813594
-0.9047574
-0.8792226
-0.77708566
-0.6749488
-0.5472771
-0.4962099
-0.47067508
-0.41960785
-0.24086651
-0.24086651
-0.24086651
-0.16426447
-0.036592774
-0.0621276
-0.13872965
-0.113194816
-0.113194816
-0.113194816
-0.24086651
-0.24086651
-0.1897993
-0.21533412
-0.3430034
-0.39407304
-0.39407304
-0.3685382
-0.47067508
-0.5472771
-0.4962099
-0.5217447
-0.59834677
-0.6238816
-0.6238816
-0.5217447
-0.57281196
-0.649414
-0.5472771
-0.59834677
-0.5217447
-0.57281196
-0.6238816
-0.59834677
-0.59834677
-0.649414
-0.649414
-0.5472771
-0.59834677
-0.6238816
-0.649414
-0.6238816
-0.57281196
-0.649414
-0.7004836
-0.649414
-0.59834677
-0.6749488
-0.7260185
-0.6749488
-0.649414
-0.6749488
-0.77708566
-0.7004836
-0.6749488
-0.6749488
-0.7260185
-0.7260185
-0.6749488
-0.649414
-0.77708566
-0.77708566
-0.6749488
-0.6749488
-0.82815534
-0.85369015
-0.80262053
-0.75155085
-0.82815534
-0.85369015
-0.80262053
-0.80262053
-0.85369015
-0.85369015
-0.80262053
-0.82815534
-0.85369015
-1.0876624286174774
-1.0621276013553143
-1.0110579477623105
-1.0876624286174774
-1.0621276013553143
-1.1387296468019485
-1.1387296468019485
-1.1642644703388214
-1.1897992938756943
-1.1642644703388214
-1.1387296468019485
-1.1642644703388214
-1.1897992938756943
-1.1897992938756943
-1.1387296468019485
-1.1897992938756943
-1.2664013504981995
-1.3174709975719452
-1.2153341174125671
-1.2664013504981995
-1.2408665120601654
-1.2664013504981995
-1.2153341174125671
-1.2664013504981995
-1.3174709975719452
-1.3174709975719452
-1.2408665120601654
-1.1897992938756943
-1.2664013504981995
-1.3430033922195435
-1.3174709975719452
-1.2919361591339111
-1.3174709975719452
-1.3685382008552551
-1.2919361591339111
-1.2664013504981995
-1.2408665120601654
-1.3174709975719452
-1.2919361591339111
-1.3174709975719452
-1.3430033922195435
-1.4451402425765991
-1.4196078479290009
-1.4196078479290009
-1.2919361591339111
-1.2919361591339111
-1.3174709975719452
-1.2919361591339111
-1.2153341174125671
-1.2408665120601654
-1.2153341174125671
-1.0876624286174774
-1.036592774093151
-1.113194815814495
-1.113194815814495
-1.0621276013553143
-1.036592774093151
-1.0621276013553143
-1.0876624286174774
-1.0876624286174774
-1.036592774093151
-1.0621276013553143
-1.2153341174125671
-1.2664013504981995
-1.2153341174125671
-1.1897992938756943
-1.1897992938756943
-1.0621276013553143
-0.7301821708679199
-0.09182614088058472
1.6955702304840088
3.789377212524414
4.146857738494873
1.2359530925750732
0.6231319904327393
0.8018733263015747
0.9806121587753296
1.1338162422180176
1.2614879608154297
1.3891596794128418
1.5678985118865967
1.644503116607666
1.5934333801269531
1.5678985118865967
1.8487768173217773
2.078585386276245
2.1041178703308105
2.0275156497955322
1.9764461517333984
1.7211050987243652
1.3125576972961426
0.9550774097442627
0.4188581705093384
-0.2450326681137085
-0.7557169944047928
-0.9855255577713251
-0.9089210778474808
-0.8323190361261368
-0.9599907323718071
-1.2664013504981995
-1.5728119611740112
-1.7515508532524109
-1.8281553387641907
-1.879222571849823
-1.9302921891212463
-1.879222571849823
-1.9047573804855347
-1.9813594222068787
-2.083496332168579
-2.109031081199646
-2.1345659494400024
-2.236702799797058
-2.389906883239746
-2.389906883239746
-2.236702799797058
-2.2877700328826904
-2.3388396501541138
-2.236702799797058
-2.1345659494400024
-2.109031081199646
-2.160100817680359
-2.236702799797058
-2.2111679315567017
-2.1345659494400024
-2.1345659494400024
-2.160100817680359
-2.160100817680359
-2.1345659494400024
-2.160100817680359
-2.236702799797058
-2.1345659494400024
-2.083496332168579
-2.109031081199646
-2.160100817680359
-2.160100817680359
-2.0579638481140137
-2.0324290990829468
-2.083496332168579
-2.1345659494400024
-2.0324290990829468
-2.0068942308425903
-2.0579638481140137
-2.0068942308425903
-1.9302921891212463
-1.879222571849823
-1.8281553387641907
-1.802620530128479
-1.7004836201667786
-1.674948811531067
-1.6494140028953552
-1.598346769809723
-1.4706750810146332
-1.3685382008552551
-1.3430033922195435
-1.4451402425765991
-1.2664013504981995
-1.2408665120601654
-1.1642644703388214
-1.1642644703388214
-1.0621276013553143
-1.0110579477623105
-0.9855255577713251
-1.036592774093151
-0.9599907323718071
-0.9344559088349342
-0.9599907323718071
-1.0110579477623105
-0.9344559088349342
-0.8833886906504631
-0.9344559088349342
-0.9855255577713251
-1.0110579477623105
-0.9855255577713251
-0.9855255577713251
-1.0621276013553143
-1.1642644703388214
-1.0876624286174774
-1.113194815814495
-1.113194815814495
-1.1897992938756943
-1.113194815814495
-1.1897992938756943
-1.2153341174125671
-1.2408665120601654
-1.2153341174125671
-1.1387296468019485
-1.1642644703388214
-1.2408665120601654
-1.2664013504981995
-1.2153341174125671
-1.1642644703388214
-1.2664013504981995
-1.2664013504981995
-1.2408665120601654
-1.2153341174125671
-1.2153341174125671
-1.2408665120601654
-1.1897992938756943
-1.1642644703388214
-1.2153341174125671
-1.3430033922195435
-1.2408665120601654
-1.2153341174125671
-1.2153341174125671
-1.2919361591339111
-1.2153341174125671
-1.1897992938756943
-1.1897992938756943
-1.2664013504981995
-1.2664013504981995
-1.2153341174125671
-1.3174709975719452
-1.3174709975719452
-1.2919361591339111
-1.2919361591339111
-1.2408665120601654
-1.3174709975719452
-1.2919361591339111
-1.2919361591339111
-1.2664013504981995
-1.2664013504981995
-1.3430033922195435
-1.3174709975719452
-1.3174709975719452
-1.3685382008552551
-1.3940730392932892
-1.4451402425765991
-1.3940730392932892
-1.4196078479290009
-1.521744728088379
-1.4451402425765991
-1.3940730392932892
-1.4196078479290009
-1.4962098896503448
-1.4962098896503448
-1.4706750810146332
-1.5472770929336548
-1.4962098896503448
-1.521744728088379
-1.4451402425765991
-1.4451402425765991
-1.521744728088379
-1.5472770929336548
-1.4962098896503448
-1.521744728088379
-1.5472770929336548
-1.5728119611740112
-1.5728119611740112
-1.4962098896503448
-1.5472770929336548
-1.598346769809723
-1.5472770929336548
-1.4962098896503448
-1.5472770929336548
-1.5728119611740112
-1.4962098896503448
-1.4451402425765991
-1.5472770929336548
-1.598346769809723
-1.5728119611740112
-1.521744728088379
-1.521744728088379
-1.5472770929336548
-1.4962098896503448
-1.4962098896503448
-1.4706750810146332
-1.5472770929336548
-1.4962098896503448
-1.4962098896503448
-1.4962098896503448
-1.4962098896503448
-1.5472770929336548
-1.521744728088379
-1.3940730392932892
-1.4451402425765991
-1.4962098896503448
-1.3685382008552551
-1.2919361591339111
-1.3174709975719452
-1.2408665120601654
-0.8833886906504631
-0.29609984159469604
1.465761661529541
3.661707878112793
3.099954128265381
1.2614879608154297
0.5975971221923828
0.7763384580612183
0.8784753084182739
0.9550774097442627
1.0061471462249756
1.0061471462249756
1.0061471462249756
0.9550774097442627
0.8784753084182739
0.9040101766586304
0.852940559387207
0.852940559387207
0.7763384580612183
0.5209951400756836
-0.04075890779495239
-0.4748387932777405
-0.8323190361261368
-1.3430033922195435
-1.9047573804855347
-1.9813594222068787
-1.7515508532524109
-1.521744728088379
-1.5472770929336548
-1.674948811531067
-1.802620530128479
-1.9302921891212463
-1.9813594222068787
-1.8536901473999023
-1.802620530128479
-1.802620530128479
-1.8536901473999023
-1.879222571849823
-1.9047573804855347
-2.0068942308425903
-2.1345659494400024
-2.1856331825256348
-2.160100817680359
-2.083496332168579
-2.0579638481140137
-2.1856331825256348
-2.109031081199646
-2.083496332168579
-2.109031081199646
-2.160100817680359
-2.109031081199646
-2.109031081199646
-2.1345659494400024
-2.2111679315567017
-2.160100817680359
-2.1856331825256348
-2.2111679315567017
-2.236702799797058
-2.236702799797058
-2.2111679315567017
-2.2111679315567017
-2.313304901123047
-2.2622376680374146
-2.236702799797058
-2.2111679315567017
-2.2622376680374146
-2.236702799797058
-2.2111679315567017
-2.1856331825256348
-2.1345659494400024
-2.1856331825256348
-2.0579638481140137
-2.0324290990829468
-1.9813594222068787
-2.0324290990829468
-1.9047573804855347
-1.802620530128479
-1.7770856618881226
-1.7004836201667786
-1.598346769809723
-1.521744728088379
-1.521744728088379
-1.4451402425765991
-1.3430033922195435
-1.2153341174125671
-1.1387296468019485
-1.1897992938756943
-1.0621276013553143
-0.9344559088349342
-0.8833886906504631
-0.8067842125892639
-0.7557169944047928
-0.7301821708679199
-0.6535801291465759
-0.6535801291465759
-0.7046473324298859
-0.6791149377822876
-0.6280452907085419
-0.6280452907085419
-0.6791149377822876
-0.6535801291465759
-0.6791149377822876
-0.6791149377822876
-0.7301821708679199
-0.7557169944047928
-0.7301821708679199
-0.8067842125892639
-0.8578538596630096
-0.9089210778474808
-0.9599907323718071
-0.9344559088349342
-1.0110579477623105
-1.0110579477623105
-0.9855255577713251
-1.036592774093151
-1.0876624286174774
-1.0876624286174774
-1.0876624286174774
-1.0876624286174774
-1.0876624286174774
-1.1642644703388214
-1.113194815814495
-1.0876624286174774
-1.0621276013553143
-1.1642644703388214
-1.1387296468019485
-1.113194815814495
-1.1387296468019485
-1.1642644703388214
-1.1387296468019485
-1.113194815814495
-1.1387296468019485
-1.1642644703388214
-1.1642644703388214
-1.036592774093151
-1.036592774093151
-1.1387296468019485
-1.1897992938756943
-1.1897992938756943
-1.1642644703388214
-1.1387296468019485
-1.1642644703388214
-1.1897992938756943
-1.1387296468019485
-1.0876624286174774
-1.1387296468019485
-1.036592774093151
-1.0110579477623105
-1.1387296468019485
-1.1642644703388214
-1.113194815814495
-1.0876624286174774
-1.1387296468019485
-1.1897992938756943
-1.2408665120601654
-1.2153341174125671
-1.2408665120601654
-1.2153341174125671
-1.2153341174125671
-1.1897992938756943
-1.2153341174125671
-1.2153341174125671
-1.2664013504981995
-1.2408665120601654
-1.1897992938756943
-1.2408665120601654
-1.2919361591339111
-1.2664013504981995
-1.1642644703388214
-1.2153341174125671
-1.3174709975719452
-1.2919361591339111
-1.2408665120601654
-1.2664013504981995
-1.3685382008552551
-1.3174709975719452
-1.2919361591339111
-1.2153341174125671
-1.2408665120601654
-1.1897992938756943
-1.1642644703388214
-1.1897992938756943
-1.2408665120601654
-1.1897992938756943
-1.1642644703388214
-1.1642644703388214
-1.1642644703388214
-1.1642644703388214
-1.1642644703388214
-1.1642644703388214
-1.2408665120601654
-1.2919361591339111
-1.2153341174125671
-1.1642644703388214
-1.1387296468019485
-1.1387296468019485
-1.0876624286174774
-1.0621276013553143
-1.113194815814495
-1.2153341174125671
-1.113194815814495
-1.0621276013553143
-1.036592774093151
-1.036592774093151
-0.9599907323718071
-0.9089210778474808
-0.8323190361261368
-0.6535801291465759
-0.09182614088058472
1.5934333801269531
4.146857738494873
3.8659815788269043
1.6955702304840088
0.9550774097442627
1.1082839965820312
1.1848859786987305
1.210420846939087
1.2359530925750732
1.3891596794128418
1.3636248111724854
1.2614879608154297
1.338089942932129
1.4146945476531982
1.3636248111724854
1.2359530925750732
1.2359530925750732
1.1338162422180176
0.49546027183532715
-0.015224099159240723
-0.34716951847076416
-0.8067842125892639
-1.4706750810146332
-1.802620530128479
-1.674948811531067
-1.4706750810146332
-1.4706750810146332
-1.7004836201667786
-1.9047573804855347
-2.0324290990829468
-1.9558270573616028
-1.8281553387641907
-1.674948811531067
-1.598346769809723
-1.5728119611740112
-1.6494140028953552
-1.7004836201667786
-1.6494140028953552
-1.6238815784454346
-1.674948811531067
-1.7770856618881226
-1.726018488407135
-1.674948811531067
-1.598346769809723
-1.5472770929336548
-1.3685382008552551
-1.1897992938756943
-1.2153341174125671
-1.2919361591339111
-1.3430033922195435
-1.1387296468019485
-1.0876624286174774
-1.0621276013553143
-1.036592774093151
-1.0876624286174774
-1.0876624286174774
-1.1642644703388214
-1.1897992938756943
-1.2153341174125671
-1.2153341174125671
-1.3174709975719452
-1.3430033922195435
-1.4196078479290009
-1.521744728088379
-1.4962098896503448
-1.4706750810146332
-1.521744728088379
-1.5728119611740112
-1.6494140028953552
-1.6494140028953552
-1.4962098896503448
-1.3940730392932892
-1.3430033922195435
-1.4451402425765991
-1.4451402425765991
-1.4451402425765991
-1.4196078479290009
-1.4196078479290009
-1.3430033922195435
-1.2408665120601654
-1.1387296468019485
-1.0621276013553143
-0.9599907323718071
-0.9599907323718071
-0.8578538596630096
-0.8578538596630096
-0.7301821708679199
-0.5259084403514862
-0.42377156019210815
-0.34716951847076416
-0.37270188331604004
-0.29609984159469604
-0.29609984159469604
-0.3216347098350525
-0.3216347098350525
-0.1684281826019287
-0.09182614088058472
-0.21949779987335205
-0.34716951847076416
-0.34716951847076416
-0.2705650329589844
-0.29609984159469604
-0.34716951847076416
-0.34716951847076416
-0.3216347098350525
-0.4493063688278198
-0.4493063688278198
-0.5514432489871979
-0.6025104820728302
-0.5259084403514862
-0.6025104820728302
-0.6535801291465759
-0.6791149377822876
-0.7046473324298859
-0.7046473324298859
-0.7557169944047928
-0.7046473324298859
-0.6791149377822876
-0.7046473324298859
-0.8323190361261368
-0.8833886906504631
-0.8323190361261368
-0.7557169944047928
-0.7301821708679199
-0.6791149377822876
-0.5769780874252319
-0.6791149377822876
-0.7301821708679199
-0.7812518179416656
-0.7301821708679199
-0.7301821708679199
-0.7812518179416656
-0.7812518179416656
-0.7812518179416656
-0.8067842125892639
-0.8067842125892639
-0.8578538596630096
-0.8578538596630096
-0.8067842125892639
-0.8067842125892639
-0.8833886906504631
-0.8578538596630096
-0.8067842125892639
-0.8067842125892639
-0.8578538596630096
-0.8833886906504631
-0.8578538596630096
-0.8578538596630096
-0.9089210778474808
-0.8833886906504631
-0.9089210778474808
-0.9089210778474808
-0.8833886906504631
-0.9344559088349342
-0.9344559088349342
-0.8833886906504631
-0.9599907323718071
-0.9344559088349342
-0.9344559088349342
-0.8323190361261368
-0.9344559088349342
-0.9855255577713251
-0.8833886906504631
-0.9089210778474808
-0.9855255577713251
-0.9855255577713251
-0.9344559088349342
-0.9089210778474808
-0.9344559088349342
-0.9599907323718071
-0.9344559088349342
-0.9089210778474808
-0.9089210778474808
-0.9855255577713251
-0.9599907323718071
-0.9089210778474808
-0.9089210778474808
-0.9599907323718071
-0.9599907323718071
-0.9344559088349342
-0.8833886906504631
-0.9344559088349342
-1.0110579477623105
-0.9855255577713251
-0.9089210778474808
-0.9344559088349342
-1.0110579477623105
-0.9089210778474808
-0.8578538596630096
-0.9089210778474808
-0.9344559088349342
-0.8833886906504631
-0.8833886906504631
-0.8833886906504631
-0.8833886906504631
-0.9089210778474808
-0.7812518179416656
-0.8067842125892639
-0.7812518179416656
-0.6535801291465759
-0.42377156019210815
0.03584551811218262
1.2614879608154297
3.968118667602539
5.040556907653809
2.921215057373047
1.210420846939087
1.210420846939087
1.338089942932129
1.6189682483673096
1.6189682483673096
1.6955702304840088
1.823241949081421
1.7977070808410645
1.6189682483673096
1.6189682483673096
1.6955702304840088
1.6189682483673096
1.4402294158935547
1.159351110458374
0.8018733263015747
0.34225618839263916
-0.06629127264022827
-0.6280452907085419
-1.2919361591339111
-1.5472770929336548
-1.521744728088379
-1.3174709975719452
-1.3174709975719452
-1.3430033922195435
-1.5472770929336548
-1.6494140028953552
-1.726018488407135
-1.7004836201667786
-1.4962098896503448
-1.4196078479290009
-1.3430033922195435
-1.3174709975719452
-1.3685382008552551
-1.3940730392932892
-1.5472770929336548
-1.598346769809723
-1.598346769809723
-1.5472770929336548
-1.4962098896503448
-1.4962098896503448
-1.4451402425765991
-1.3940730392932892
-1.3940730392932892
-1.3685382008552551
-1.3430033922195435
-1.3174709975719452
-1.3685382008552551
-1.3430033922195435
-1.3174709975719452
-1.2919361591339111
-1.3940730392932892
-1.3685382008552551
-1.3685382008552551
-1.3430033922195435
-1.3940730392932892
-1.3940730392932892
-1.3430033922195435
-1.3430033922195435
-1.4196078479290009
-1.4706750810146332
-1.4196078479290009
-1.3685382008552551
-1.4196078479290009
-1.4706750810146332
-1.3940730392932892
-1.2919361591339111
-1.1897992938756943
-1.1642644703388214
-1.1387296468019485
-1.036592774093151
-0.9344559088349342
-0.8833886906504631
-0.7812518179416656
-0.6791149377822876
-0.6535801291465759
-0.6280452907085419
-0.5514432489871979
-0.5003736019134521
-0.3982367515563965
-0.37270188331604004
-0.34716951847076416
-0.3216347098350525
-0.29609984159469604
-0.34716951847076416
-0.3982367515563965
-0.2450326681137085
-0.21949779987335205
-0.19396299123764038
-0.19396299123764038
-0.19396299123764038
-0.1684281826019287
-0.21949779987335205
-0.21949779987335205
-0.29609984159469604
-0.29609984159469604
-0.29609984159469604
-0.37270188331604004
-0.3982367515563965
-0.37270188331604004
-0.4748387932777405
-0.5003736019134521
-0.5769780874252319
-0.5769780874252319
-0.6025104820728302
-0.6535801291465759
-0.6791149377822876
-0.6535801291465759
-0.6791149377822876
-0.6535801291465759
-0.7046473324298859
-0.7046473324298859
-0.7046473324298859
-0.6791149377822876
-0.7812518179416656
-0.7812518179416656
-0.7301821708679199
-0.7046473324298859
-0.8067842125892639
-0.7812518179416656
-0.7557169944047928
-0.7557169944047928
-0.8323190361261368
-0.8323190361261368
-0.7812518179416656
-0.7812518179416656
-0.8323190361261368
-0.8833886906504631
-0.9089210778474808
-0.8833886906504631
-0.8833886906504631
-0.9344559088349342
-0.8833886906504631
-0.9089210778474808
-0.9344559088349342
-1.0110579477623105
-0.9855255577713251
-1.0110579477623105
-1.0110579477623105
-1.0621276013553143
-1.0110579477623105
-0.9599907323718071
-0.9855255577713251
-1.036592774093151
-1.036592774093151
-1.0110579477623105
-0.9855255577713251
-1.0110579477623105
-1.0621276013553143
-1.0621276013553143
-1.0110579477623105
-1.0621276013553143
-1.0621276013553143
-1.036592774093151
-0.9855255577713251
-1.0110579477623105
-1.0876624286174774
-1.036592774093151
-1.036592774093151
-1.0621276013553143
-1.0876624286174774
-1.0110579477623105
-1.036592774093151
-1.0621276013553143
-1.0110579477623105
-1.0110579477623105
-1.0110579477623105
-1.0110579477623105
-1.0621276013553143
-1.113194815814495
-1.0110579477623105
-0.9855255577713251
-1.0876624286174774
-1.113194815814495
-1.036592774093151
-0.9855255577713251
-1.036592774093151
-1.113194815814495
-1.0876624286174774
-0.9599907323718071
-1.0110579477623105
-1.0621276013553143
-0.9855255577713251
-0.8578538596630096
-0.9599907323718071
-1.036592774093151
-0.9599907323718071
-0.9599907323718071
-0.9089210778474808
-0.9855255577713251
-0.9855255577713251
-0.8578538596630096
-0.8833886906504631
-0.9089210778474808
-0.8833886906504631
-0.7557169944047928
-0.7301821708679199
-0.7046473324298859
-0.4493063688278198
0.11244761943817139
1.6189682483673096
4.019186019897461
3.9936532974243164
3.482966899871826
1.2359530925750732
1.2614879608154297
1.2614879608154297
1.338089942932129
1.338089942932129
1.3636248111724854
1.2614879608154297
1.2870228290557861
1.2614879608154297
1.1848859786987305
1.1338162422180176
1.1082839965820312
0.9040101766586304
0.5975971221923828
0.16351723670959473
-0.19396299123764038
-0.5259084403514862
-0.9855255577713251
-1.6494140028953552
-2.160100817680359
-2.1345659494400024
-1.802620530128479
-1.6238815784454346
-1.4962098896503448
-1.4451402425765991
-1.4196078479290009
-1.4451402425765991
-1.4706750810146332
-1.2408665120601654
-1.0110579477623105
-0.9344559088349342
-0.9855255577713251
-1.036592774093151
-1.0876624286174774
-1.2408665120601654
-1.3430033922195435
-1.2919361591339111
-1.2153341174125671
-1.1387296468019485
-1.1642644703388214
-1.1387296468019485
-1.113194815814495
-1.0876624286174774
-1.1387296468019485
-1.113194815814495
-1.0621276013553143
-1.0110579477623105
-1.0621276013553143
-1.1387296468019485
-1.1387296468019485
-1.0876624286174774
-1.0876624286174774
-1.1897992938756943
-1.1642644703388214
-1.0876624286174774
-1.1642644703388214
-1.2664013504981995
-1.1387296468019485
-1.0876624286174774
-1.113194815814495
-1.1642644703388214
-1.0876624286174774
-1.0621276013553143
-1.036592774093151
-1.0621276013553143
-1.0621276013553143
-0.9855255577713251
-0.9089210778474808
-0.9599907323718071
-0.9855255577713251
-0.8578538596630096
-0.8067842125892639
-0.8067842125892639
-0.7812518179416656
-0.7301821708679199
-0.6280452907085419
-0.6025104820728302
-0.6025104820728302
-0.4493063688278198
-0.34716951847076416
-0.29609984159469604
-0.34716951847076416
-0.21949779987335205
-0.14289575815200806
-0.11736094951629639
-0.09182614088058472
-0.04075890779495239
0.06137800216674805
0.010310769081115723
-0.04075890779495239
0.03584551811218262
0.03584551811218262
0.010310769081115723
-0.015224099159240723
-0.04075890779495239
0.06137800216674805
0.06137800216674805
0.03584551811218262
-0.06629127264022827
-0.06629127264022827
-0.015224099159240723
-0.06629127264022827
-1.0876624286174774
-1.0621276013553143
-1.0110579477623105
-1.0876624286174774
-1.0621276013553143
-1.1387296468019485
-1.1387296468019485
-1.1642644703388214
-1.1897992938756943
-1.1642644703388214
-1.1387296468019485
-1.1642644703388214
-1.1897992938756943
-1.1897992938756943
-1.1387296468019485
-1.1897992938756943
-1.2664013504981995
-1.3174709975719452
-1.2153341174125671
-1.2664013504981995
-1.2408665120601654
-1.2664013504981995
-1.2153341174125671
-1.2664013504981995
-1.3174709975719452
-1.3174709975719452
-1.2408665120601654
-1.1897992938756943
-1.2664013504981995
-1.3430033922195435
-1.3174709975719452
-1.2919361591339111
-1.3174709975719452
-1.3685382008552551
-1.2919361591339111
-1.2664013504981995
-1.2408665120601654
-1.3174709975719452
-1.2919361591339111
-1.3174709975719452
-1.3430033922195435
-1.4451402425765991
-1.4196078479290009
-1.4196078479290009
-1.2919361591339111
-1.2919361591339111
-1.3174709975719452
-1.2919361591339111
-1.2153341174125671
-1.2408665120601654
-1.2153341174125671
-1.0876624286174774
-1.036592774093151
-1.113194815814495
-1.113194815814495
-1.0621276013553143
-1.036592774093151
-1.0621276013553143
-1.0876624286174774
-1.0876624286174774
-1.036592774093151
-1.0621276013553143
-1.2153341174125671
-1.2664013504981995
-1.2153341174125671
-1.1897992938756943
-1.1897992938756943
-1.0621276013553143
-0.7301821708679199
-0.09182614088058472
1.6955702304840088
3.789377212524414
4.146857738494873
1.2359530925750732
0.6231319904327393
0.8018733263015747
0.9806121587753296
1.1338162422180176
1.2614879608154297
1.3891596794128418
1.5678985118865967
1.644503116607666
1.5934333801269531
1.5678985118865967
1.8487768173217773
2.078585386276245
2.1041178703308105
2.0275156497955322
1.9764461517333984
1.7211050987243652
1.3125576972961426
0.9550774097442627
0.4188581705093384
-0.2450326681137085
-0.7557169944047928
-0.9855255577713251
-0.9089210778474808
-0.8323190361261368
-0.9599907323718071
-1.2664013504981995
-1.5728119611740112
-1.7515508532524109
-1.8281553387641907
-1.879222571849823
-1.9302921891212463
-1.879222571849823
-1.9047573804855347
-1.9813594222068787
-2.083496332168579
-2.109031081199646
-2.1345659494400024
-2.236702799797058
-2.389906883239746
-2.389906883239746
-2.236702799797058
-2.2877700328826904
-2.3388396501541138
-2.236702799797058
-2.1345659494400024
-2.109031081199646
-2.160100817680359
-2.236702799797058
-2.2111679315567017
-2.1345659494400024
-2.1345659494400024
-2.160100817680359
-2.160100817680359
-2.1345659494400024
-2.160100817680359
-2.236702799797058
-2.1345659494400024
-2.083496332168579
-2.109031081199646
-2.160100817680359
-2.160100817680359
-2.0579638481140137
-2.0324290990829468
-2.083496332168579
-2.1345659494400024
-2.0324290990829468
-2.0068942308425903
-2.0579638481140137
-2.0068942308425903
-1.9302921891212463
-1.879222571849823
-1.8281553387641907
-1.802620530128479
-1.7004836201667786
-1.674948811531067
-1.6494140028953552
-1.598346769809723
-1.4706750810146332
-1.3685382008552551
-1.3430033922195435
-1.4451402425765991
-1.2664013504981995
-1.2408665120601654
-1.1642644703388214
-1.1642644703388214
-1.0621276013553143
-1.0110579477623105
-0.9855255577713251
-1.036592774093151
-0.9599907323718071
-0.9344559088349342
-0.9599907323718071
-1.0110579477623105
-0.9344559088349342
-0.8833886906504631
-0.9344559088349342
-0.9855255577713251
-1.0110579477623105
-0.9855255577713251
-0.9855255577713251
-1.0621276013553143
-1.1642644703388214
-1.0876624286174774
-1.113194815814495
-1.113194815814495
-1.1897992938756943
-1.113194815814495
-1.1897992938756943
-1.2153341174125671
-1.2408665120601654
-1.2153341174125671
-1.1387296468019485
-1.1642644703388214
-1.2408665120601654
-1.2664013504981995
-1.2153341174125671
-1.1642644703388214
-1.2664013504981995
-1.2664013504981995
-1.2408665120601654
-1.2153341174125671
-1.2153341174125671
-1.2408665120601654
-1.1897992938756943
-1.1642644703388214
-1.2153341174125671
-1.3430033922195435
-1.2408665120601654
-1.2153341174125671
-1.2153341174125671
-1.2919361591339111
-1.2153341174125671
-1.1897992938756943
-1.1897992938756943
-1.2664013504981995
-1.2664013504981995
-1.2153341174125671
-1.3174709975719452
-1.3174709975719452
-1.2919361591339111
-1.2919361591339111
-1.2408665120601654
-1.3174709975719452
-1.2919361591339111
-1.2919361591339111
-1.2664013504981995
-1.2664013504981995
-1.3430033922195435
-1.3174709975719452
-1.3174709975719452
-1.3685382008552551
-1.3940730392932892
-1.4451402425765991
-1.3940730392932892
-1.4196078479290009
-1.521744728088379
-1.4451402425765991
-1.3940730392932892
-1.4196078479290009
-1.4962098896503448
-1.4962098896503448
-1.4706750810146332
-1.5472770929336548
-1.4962098896503448
-1.521744728088379
-1.4451402425765991
-1.4451402425765991
-1.521744728088379
-1.5472770929336548
-1.4962098896503448
-1.521744728088379
-1.5472770929336548
-1.5728119611740112
-1.5728119611740112
-1.4962098896503448
-1.5472770929336548
-1.598346769809723
-1.5472770929336548
-1.4962098896503448
-1.5472770929336548
-1.5728119611740112
-1.4962098896503448
-1.4451402425765991
-1.5472770929336548
-1.598346769809723
-1.5728119611740112
-1.521744728088379
-1.521744728088379
-1.5472770929336548
-1.4962098896503448
-1.4962098896503448
-1.4706750810146332
-1.5472770929336548
-1.4962098896503448
-1.4962098896503448
-1.4962098896503448
-1.4962098896503448
-1.5472770929336548
-1.521744728088379
-1.3940730392932892
-1.4451402425765991
-1.4962098896503448
-1.3685382008552551
-1.2919361591339111
-1.3174709975719452
-1.2408665120601654
-0.8833886906504631
-0.29609984159469604
1.465761661529541
3.661707878112793
3.099954128265381
1.2614879608154297
0.5975971221923828
0.7763384580612183
0.8784753084182739
0.9550774097442627
1.0061471462249756
1.0061471462249756
1.0061471462249756
0.9550774097442627
0.8784753084182739
0.9040101766586304
0.852940559387207
0.852940559387207
0.7763384580612183
0.5209951400756836
-0.04075890779495239
-0.4748387932777405
-0.8323190361261368
-1.3430033922195435
-1.9047573804855347
-1.9813594222068787
-1.7515508532524109
-1.521744728088379
-1.5472770929336548
-1.674948811531067
-1.802620530128479
-1.9302921891212463
-1.9813594222068787
-1.8536901473999023
-1.802620530128479
-1.802620530128479
-1.8536901473999023
-1.879222571849823
-1.9047573804855347
-2.0068942308425903
-2.1345659494400024
-2.1856331825256348
-2.160100817680359
-2.083496332168579
-2.0579638481140137
-2.1856331825256348
-2.109031081199646
-2.083496332168579
-2.109031081199646
-2.160100817680359
-2.109031081199646
-2.109031081199646
-2.1345659494400024
-2.2111679315567017
-2.160100817680359
-2.1856331825256348
-2.2111679315567017
-2.236702799797058
-2.236702799797058
-2.2111679315567017
-2.2111679315567017
-2.313304901123047
-2.2622376680374146
-2.236702799797058
-2.2111679315567017
-2.2622376680374146
-2.236702799797058
-2.2111679315567017
-2.1856331825256348
-2.1345659494400024
-2.1856331825256348
-2.0579638481140137
-2.0324290990829468
-1.9813594222068787
-2.0324290990829468
-1.9047573804855347
-1.802620530128479
-1.7770856618881226
-1.7004836201667786
-1.598346769809723
-1.521744728088379
-1.521744728088379
-1.4451402425765991
-1.3430033922195435
-1.2153341174125671
-1.1387296468019485
-1.1897992938756943
-1.0621276013553143
-0.9344559088349342
-0.8833886906504631
-0.8067842125892639
-0.7557169944047928
-0.7301821708679199
-0.6535801291465759
-0.6535801291465759
-0.7046473324298859
-0.6791149377822876
-0.6280452907085419
-0.6280452907085419
-0.6791149377822876
-0.6535801291465759
-0.6791149377822876
-0.6791149377822876
-0.7301821708679199
-0.7557169944047928
-0.7301821708679199
-0.8067842125892639
-0.8578538596630096
-0.9089210778474808
-0.9599907323718071
-0.9344559088349342
-1.0110579477623105
-1.0110579477623105
-0.9855255577713251
-1.036592774093151
-1.0876624286174774
-1.0876624286174774
-1.0876624286174774
-1.0876624286174774
-1.0876624286174774
-1.1642644703388214
-1.113194815814495
-1.0876624286174774
-1.0621276013553143
-1.1642644703388214
-1.1387296468019485
-1.113194815814495
-1.1387296468019485
-1.1642644703388214
-1.1387296468019485
-1.113194815814495
-1.1387296468019485
-1.1642644703388214
-1.1642644703388214
-1.036592774093151
-1.036592774093151
-1.1387296468019485
-1.1897992938756943
-1.1897992938756943
-1.1642644703388214
-1.1387296468019485
-1.1642644703388214
-1.1897992938756943
-1.1387296468019485
-1.0876624286174774
-1.1387296468019485
-1.036592774093151
-1.0110579477623105
-1.1387296468019485
-1.1642644703388214
-1.113194815814495
-1.0876624286174774
-1.1387296468019485
-1.1897992938756943
-1.2408665120601654
-1.2153341174125671
-1.2408665120601654
-1.2153341174125671
-1.2153341174125671
-1.1897992938756943
-1.2153341174125671
-1.2153341174125671
-1.2664013504981995
-1.2408665120601654
-1.1897992938756943
-1.2408665120601654
-1.2919361591339111
-1.2664013504981995
-1.1642644703388214
-1.2153341174125671
-1.3174709975719452
-1.2919361591339111
-1.2408665120601654
-1.2664013504981995
-1.3685382008552551
-1.3174709975719452
-1.2919361591339111
-1.2153341174125671
-1.2408665120601654
-1.1897992938756943
-1.1642644703388214
-1.1897992938756943
-1.2408665120601654
-1.1897992938756943
-1.1642644703388214
-1.1642644703388214
-1.1642644703388214
-1.1642644703388214
-1.1642644703388214
-1.1642644703388214
-1.2408665120601654
-1.2919361591339111
-1.2153341174125671
-1.1642644703388214
-1.1387296468019485
-1.1387296468019485
-1.0876624286174774
-1.0621276013553143
-1.113194815814495
-1.2153341174125671
-1.113194815814495
-1.0621276013553143
-1.036592774093151
-1.036592774093151
-0.9599907323718071
-0.9089210778474808
-0.8323190361261368
-0.6535801291465759
-0.09182614088058472
1.5934333801269531
4.146857738494873
3.8659815788269043
1.6955702304840088
0.9550774097442627
1.1082839965820312
1.1848859786987305
1.210420846939087
1.2359530925750732
1.3891596794128418
1.3636248111724854
1.2614879608154297
1.338089942932129
1.4146945476531982
1.3636248111724854
1.2359530925750732
1.2359530925750732
1.1338162422180176
0.49546027183532715
-0.015224099159240723
-0.34716951847076416
-0.8067842125892639
-1.4706750810146332
-1.802620530128479
-1.674948811531067
-1.4706750810146332
-1.4706750810146332
-1.7004836201667786
-1.9047573804855347
-2.0324290990829468
-1.9558270573616028
-1.8281553387641907
-1.674948811531067
-1.598346769809723
-1.5728119611740112
-1.6494140028953552
-1.7004836201667786
-1.6494140028953552
-1.6238815784454346
-1.674948811531067
-1.7770856618881226
-1.726018488407135
-1.674948811531067
-1.598346769809723
-1.5472770929336548
-1.3685382008552551
-1.1897992938756943
-1.2153341174125671
-1.2919361591339111
-1.3430033922195435
-1.1387296468019485
-1.0876624286174774
-1.0621276013553143
-1.036592774093151
-1.0876624286174774
-1.0876624286174774
-1.1642644703388214
-1.1897992938756943
-1.2153341174125671
-1.2153341174125671
-1.3174709975719452
-1.3430033922195435
-1.4196078479290009
-1.521744728088379
-1.4962098896503448
-1.4706750810146332
-1.521744728088379
-1.5728119611740112
-1.6494140028953552
-1.6494140028953552
-1.4962098896503448
-1.3940730392932892
-1.3430033922195435
-1.4451402425765991
-1.4451402425765991
-1.4451402425765991
-1.4196078479290009
-1.4196078479290009
-1.3430033922195435
-1.2408665120601654
-1.1387296468019485
-1.0621276013553143
-0.9599907323718071
-0.9599907323718071
-0.8578538596630096
-0.8578538596630096
-0.7301821708679199
-0.5259084403514862
-0.42377156019210815
-0.34716951847076416
-0.37270188331604004
-0.29609984159469604
-0.29609984159469604
-0.3216347098350525
-0.3216347098350525
-0.1684281826019287
-0.09182614088058472
-0.21949779987335205
-0.34716951847076416
-0.34716951847076416
-0.2705650329589844
-0.29609984159469604
-0.34716951847076416
-0.34716951847076416
-0.3216347098350525
-0.4493063688278198
-0.4493063688278198
-0.5514432489871979
-0.6025104820728302
-0.5259084403514862
-0.6025104820728302
-0.6535801291465759
-0.6791149377822876
-0.7046473324298859
-0.7046473324298859
-0.7557169944047928
-0.7046473324298859
-0.6791149377822876
-0.7046473324298859
-0.8323190361261368
-0.8833886906504631
-0.8323190361261368
-0.7557169944047928
-0.7301821708679199
-0.6791149377822876
-0.5769780874252319
-0.6791149377822876
-0.7301821708679199
-0.7812518179416656
-0.7301821708679199
-0.7301821708679199
-0.7812518179416656
-0.7812518179416656
-0.7812518179416656
-0.8067842125892639
-0.8067842125892639
-0.8578538596630096
-0.8578538596630096
-0.8067842125892639
-0.8067842125892639
-0.8833886906504631
-0.8578538596630096
-0.8067842125892639
-0.8067842125892639
-0.8578538596630096
-0.8833886906504631
-0.8578538596630096
-0.8578538596630096
-0.9089210778474808
-0.8833886906504631
-0.9089210778474808
-0.9089210778474808
-0.8833886906504631
-0.9344559088349342
-0.9344559088349342
-0.8833886906504631
-0.9599907323718071
-0.9344559088349342
-0.9344559088349342
-0.8323190361261368
-0.9344559088349342
-0.9855255577713251
-0.8833886906504631
-0.9089210778474808
-0.9855255577713251
-0.9855255577713251
-0.9344559088349342
-0.9089210778474808
-0.9344559088349342
-0.9599907323718071
-0.9344559088349342
-0.9089210778474808
-0.9089210778474808
-0.9855255577713251
-0.9599907323718071
-0.9089210778474808
-0.9089210778474808
-0.9599907323718071
-0.9599907323718071
-0.9344559088349342
-0.8833886906504631
-0.9344559088349342
-1.0110579477623105
-0.9855255577713251
-0.9089210778474808
-0.9344559088349342
-1.0110579477623105
-0.9089210778474808
-0.8578538596630096
-0.9089210778474808
-0.9344559088349342
-0.8833886906504631
-0.8833886906504631
-0.8833886906504631
-0.8833886906504631
-0.9089210778474808
-0.7812518179416656
-0.8067842125892639
-0.7812518179416656
-0.6535801291465759
-0.42377156019210815
0.03584551811218262
1.2614879608154297
3.968118667602539
5.040556907653809
2.921215057373047
1.210420846939087
1.210420846939087
1.338089942932129
1.6189682483673096
1.6189682483673096
1.6955702304840088
1.823241949081421
1.7977070808410645
1.6189682483673096
1.6189682483673096
1.6955702304840088
1.6189682483673096
1.4402294158935547
1.159351110458374
0.8018733263015747
0.34225618839263916
-0.06629127264022827
-0.6280452907085419
-1.2919361591339111
-1.5472770929336548
-1.521744728088379
-1.3174709975719452
-1.3174709975719452
-1.3430033922195435
-1.5472770929336548
-1.6494140028953552
-1.726018488407135
-1.7004836201667786
-1.4962098896503448
-1.4196078479290009
-1.3430033922195435
-1.3174709975719452
-1.3685382008552551
-1.3940730392932892
-1.5472770929336548
-1.598346769809723
-1.598346769809723
-1.5472770929336548
-1.4962098896503448
-1.4962098896503448
-1.4451402425765991
-1.3940730392932892
-1.3940730392932892
-1.3685382008552551
-1.3430033922195435
-1.3174709975719452
-1.3685382008552551
-1.3430033922195435
-1.3174709975719452
-1.2919361591339111
-1.3940730392932892
-1.3685382008552551
-1.3685382008552551
-1.3430033922195435
-1.3940730392932892
-1.3940730392932892
-1.3430033922195435
-1.3430033922195435
-1.4196078479290009
-1.4706750810146332
-1.4196078479290009
-1.3685382008552551
-1.4196078479290009
-1.4706750810146332
-1.3940730392932892
-1.2919361591339111
-1.1897992938756943
-1.1642644703388214
-1.1387296468019485
-1.036592774093151
-0.9344559088349342
-0.8833886906504631
-0.7812518179416656
-0.6791149377822876
-0.6535801291465759
-0.6280452907085419
-0.5514432489871979
-0.5003736019134521
-0.3982367515563965
-0.37270188331604004
-0.34716951847076416
-0.3216347098350525
-0.29609984159469604
-0.34716951847076416
-0.3982367515563965
-0.2450326681137085
-0.21949779987335205
-0.19396299123764038
-0.19396299123764038
-0.19396299123764038
-0.1684281826019287
-0.21949779987335205
-0.21949779987335205
-0.29609984159469604
-0.29609984159469604
-0.29609984159469604
-0.37270188331604004
-0.3982367515563965
-0.37270188331604004
-0.4748387932777405
-0.5003736019134521
-0.5769780874252319
-0.5769780874252319
-0.6025104820728302
-0.6535801291465759
-0.6791149377822876
-0.6535801291465759
-0.6791149377822876
-0.6535801291465759
-0.7046473324298859
-0.7046473324298859
-0.7046473324298859
-0.6791149377822876
-0.7812518179416656
-0.7812518179416656
-0.7301821708679199
-0.7046473324298859
-0.8067842125892639
-0.7812518179416656
-0.7557169944047928
-0.7557169944047928
-0.8323190361261368
-0.8323190361261368
-0.7812518179416656
-0.7812518179416656
-0.8323190361261368
-0.8833886906504631
-0.9089210778474808
-0.8833886906504631
-0.8833886906504631
-0.9344559088349342
-0.8833886906504631
-0.9089210778474808
-0.9344559088349342
-1.0110579477623105
-0.9855255577713251
-1.0110579477623105
-1.0110579477623105
-1.0621276013553143
-1.0110579477623105
-0.9599907323718071
-0.9855255577713251
-1.036592774093151
-1.036592774093151
-1.0110579477623105
-0.9855255577713251
-1.0110579477623105
-1.0621276013553143
-1.0621276013553143
-1.0110579477623105
-1.0621276013553143
-1.0621276013553143
-1.036592774093151
-0.9855255577713251
-1.0110579477623105
-1.0876624286174774
-1.036592774093151
-1.036592774093151
-1.0621276013553143
-1.0876624286174774
-1.0110579477623105
-1.036592774093151
-1.0621276013553143
-1.0110579477623105
-1.0110579477623105
-1.0110579477623105
-1.0110579477623105
-1.0621276013553143
-1.113194815814495
-1.0110579477623105
-0.9855255577713251
-1.0876624286174774
-1.113194815814495
-1.036592774093151
-0.9855255577713251
-1.036592774093151
-1.113194815814495
-1.0876624286174774
-0.9599907323718071
-1.0110579477623105
-1.0621276013553143
-0.9855255577713251
-0.8578538596630096
-0.9599907323718071
-1.036592774093151
-0.9599907323718071
-0.9599907323718071
-0.9089210778474808
-0.9855255577713251
-0.9855255577713251
-0.8578538596630096
-0.8833886906504631
-0.9089210778474808
-0.8833886906504631
-0.7557169944047928
-0.7301821708679199
-0.7046473324298859
-0.4493063688278198
0.11244761943817139
1.6189682483673096
4.019186019897461
3.9936532974243164
3.482966899871826
1.2359530925750732
1.2614879608154297
1.2614879608154297
1.338089942932129
1.338089942932129
1.3636248111724854
1.2614879608154297
1.2870228290557861
1.2614879608154297
1.1848859786987305
1.1338162422180176
1.1082839965820312
0.9040101766586304
0.5975971221923828
0.16351723670959473
-0.19396299123764038
-0.5259084403514862
-0.9855255577713251
-1.6494140028953552
-2.160100817680359
-2.1345659494400024
-1.802620530128479
-1.6238815784454346
-1.4962098896503448
-1.4451402425765991
-1.4196078479290009
-1.4451402425765991
-1.4706750810146332
-1.2408665120601654
-1.0110579477623105
-0.9344559088349342
-0.9855255577713251
-1.036592774093151
-1.0876624286174774
-1.2408665120601654
-1.3430033922195435
-1.2919361591339111
-1.2153341174125671
-1.1387296468019485
-1.1642644703388214
-1.1387296468019485
-1.113194815814495
-1.0876624286174774
-1.1387296468019485
-1.113194815814495
-1.0621276013553143
-1.0110579477623105
-1.0621276013553143
-1.1387296468019485
-1.1387296468019485
-1.0876624286174774
-1.0876624286174774
-1.1897992938756943
-1.1642644703388214
-1.0876624286174774
-1.1642644703388214
-1.2664013504981995
-1.1387296468019485
-1.0876624286174774
-1.113194815814495
-1.1642644703388214
-1.0876624286174774
-1.0621276013553143
-1.036592774093151
-1.0621276013553143
-1.0621276013553143
-0.9855255577713251
-0.9089210778474808
-0.9599907323718071
-0.9855255577713251
-0.8578538596630096
-0.8067842125892639
-0.8067842125892639
-0.7812518179416656
-0.7301821708679199
-0.6280452907085419
-0.6025104820728302
-0.6025104820728302
-0.4493063688278198
-0.34716951847076416
-0.29609984159469604
-0.34716951847076416
-0.21949779987335205
-0.14289575815200806
-0.11736094951629639
-0.09182614088058472
-0.04075890779495239
0.06137800216674805
0.010310769081115723
-0.04075890779495239
0.03584551811218262
0.03584551811218262
0.010310769081115723
-0.015224099159240723
-0.04075890779495239
0.06137800216674805
0.06137800216674805
0.03584551811218262
-0.06629127264022827
-0.06629127264022827
-0.015224099159240723
-0.06629127264022827
-1.0876624286174774
-1.0621276013553143
-1.0110579477623105
-1.0876624286174774
-1.0621276013553143
-1.1387296468019485
-1.1387296468019485
-1.1642644703388214
-1.1897992938756943
-1.1642644703388214
-1.1387296468019485
-1.1642644703388214
-1.1897992938756943
-1.1897992938756943
-1.1387296468019485
-1.1897992938756943
-1.2664013504981995
-1.3174709975719452
-1.2153341174125671
-1.2664013504981995
-1.2408665120601654
-1.2664013504981995
-1.2153341174125671
-1.2664013504981995
-1.3174709975719452
-1.3174709975719452
-1.2408665120601654
-1.1897992938756943
-1.2664013504981995
-1.3430033922195435
-1.3174709975719452
-1.2919361591339111
-1.3174709975719452
-1.3685382008552551
-1.2919361591339111
-1.2664013504981995
-1.2408665120601654
-1.3174709975719452
-1.2919361591339111
-1.3174709975719452
-1.3430033922195435
-1.4451402425765991
-1.4196078479290009
-1.4196078479290009
-1.2919361591339111
-1.2919361591339111
-1.3174709975719452
-1.2919361591339111
-1.2153341174125671
-1.2408665120601654
-1.2153341174125671
-1.0876624286174774
-1.036592774093151
-1.113194815814495
-1.113194815814495
-1.0621276013553143
-1.036592774093151
-1.0621276013553143
-1.0876624286174774
-1.0876624286174774
-1.036592774093151
-1.0621276013553143
-1.2153341174125671
-1.2664013504981995
-1.2153341174125671
-1.1897992938756943
-1.1897992938756943
-1.0621276013553143
-0.7301821708679199
-0.09182614088058472
1.6955702304840088
3.789377212524414
4.146857738494873
1.2359530925750732
0.6231319904327393
0.8018733263015747
0.9806121587753296
1.1338162422180176
1.2614879608154297
1.3891596794128418
1.5678985118865967
1.644503116607666
1.5934333801269531
1.5678985118865967
1.8487768173217773
2.078585386276245
2.1041178703308105
2.0275156497955322
1.9764461517333984
1.7211050987243652
1.3125576972961426
0.9550774097442627
0.4188581705093384
-0.2450326681137085
-0.7557169944047928
-0.9855255577713251
-0.9089210778474808
-0.8323190361261368
-0.9599907323718071
-1.2664013504981995
-1.5728119611740112
-1.7515508532524109
-1.8281553387641907
-1.879222571849823
-1.9302921891212463
-1.879222571849823
-1.9047573804855347
-1.9813594222068787
-2.083496332168579
-2.109031081199646
-2.1345659494400024
-2.236702799797058
-2.389906883239746
-2.389906883239746
-2.236702799797058
-2.2877700328826904
-2.3388396501541138
-2.236702799797058
-2.1345659494400024
-2.109031081199646
-2.160100817680359
-2.236702799797058
-2.2111679315567017
-2.1345659494400024
-2.1345659494400024
-2.160100817680359
-2.160100817680359
-2.1345659494400024
-2.160100817680359
-2.236702799797058
-2.1345659494400024
-2.083496332168579
-2.109031081199646
-2.160100817680359
-2.160100817680359
-2.0579638481140137
-2.0324290990829468
-2.083496332168579
-2.1345659494400024
-2.0324290990829468
-2.0068942308425903
-2.0579638481140137
-2.0068942308425903
-1.9302921891212463
-1.879222571849823
-1.8281553387641907
-1.802620530128479
-1.7004836201667786
-1.674948811531067
-1.6494140028953552
-1.598346769809723
-1.4706750810146332
-1.3685382008552551
-1.3430033922195435
-1.4451402425765991
-1.2664013504981995
-1.2408665120601654
-1.1642644703388214
-1.1642644703388214
-1.0621276013553143
-1.0110579477623105
-0.9855255577713251
-1.036592774093151
-0.9599907323718071
-0.9344559088349342
-0.9599907323718071
-1.0110579477623105
-0.9344559088349342
-0.8833886906504631
-0.9344559088349342
-0.9855255577713251
-1.0110579477623105
-0.9855255577713251
-0.9855255577713251
-1.0621276013553143
-1.1642644703388214
-1.0876624286174774
-1.113194815814495
-1.113194815814495
-1.1897992938756943
-1.113194815814495
-1.1897992938756943
-1.2153341174125671
-1.2408665120601654
-1.2153341174125671
-1.1387296468019485
-1.1642644703388214
-1.2408665120601654
-1.2664013504981995
-1.2153341174125671
-1.1642644703388214
-1.2664013504981995
-1.2664013504981995
-1.2408665120601654
-1.2153341174125671
-1.2153341174125671
-1.2408665120601654
-1.1897992938756943
-1.1642644703388214
-1.2153341174125671
-1.3430033922195435
-1.2408665120601654
-1.2153341174125671
-1.2153341174125671
-1.2919361591339111
-1.2153341174125671
-1.1897992938756943
-1.1897992938756943
-1.2664013504981995
-1.2664013504981995
-1.2153341174125671
-1.3174709975719452
-1.3174709975719452
-1.2919361591339111
-1.2919361591339111
-1.2408665120601654
-1.3174709975719452
-1.2919361591339111
-1.2919361591339111
-1.2664013504981995
-1.2664013504981995
-1.3430033922195435
-1.3174709975719452
-1.3174709975719452
-1.3685382008552551
-1.3940730392932892
-1.4451402425765991
-1.3940730392932892
-1.4196078479290009
-1.521744728088379
-1.4451402425765991
-1.3940730392932892
-1.4196078479290009
-1.4962098896503448
-1.4962098896503448
-1.4706750810146332
-1.5472770929336548
-1.4962098896503448
-1.521744728088379
-1.4451402425765991
-1.4451402425765991
-1.521744728088379
-1.5472770929336548
-1.4962098896503448
-1.521744728088379
-1.5472770929336548
-1.5728119611740112
-1.5728119611740112
-1.4962098896503448
-1.5472770929336548
-1.598346769809723
-1.5472770929336548
-1.4962098896503448
-1.5472770929336548
-1.5728119611740112
-1.4962098896503448
-1.4451402425765991
-1.5472770929336548
-1.598346769809723
-1.5728119611740112
-1.521744728088379
-1.521744728088379
-1.5472770929336548
-1.4962098896503448
-1.4962098896503448
-1.4706750810146332
-1.5472770929336548
-1.4962098896503448
-1.4962098896503448
-1.4962098896503448
-1.4962098896503448
-1.5472770929336548
-1.521744728088379
-1.3940730392932892
-1.4451402425765991
-1.4962098896503448
-1.3685382008552551
-1.2919361591339111
-1.3174709975719452
-1.2408665120601654
-0.8833886906504631
-0.29609984159469604
1.465761661529541
3.661707878112793
3.099954128265381
1.2614879608154297
0.5975971221923828
0.7763384580612183
0.8784753084182739
0.9550774097442627
1.0061471462249756
1.0061471462249756
1.0061471462249756
0.9550774097442627
0.8784753084182739
0.9040101766586304
0.852940559387207
0.852940559387207
0.7763384580612183
0.5209951400756836
-0.04075890779495239
-0.4748387932777405
-0.8323190361261368
-1.3430033922195435
-1.9047573804855347
-1.9813594222068787
-1.7515508532524109
-1.521744728088379
-1.5472770929336548
-1.674948811531067
-1.802620530128479
-1.9302921891212463
-1.9813594222068787
-1.8536901473999023
-1.802620530128479
-1.802620530128479
-1.8536901473999023
-1.879222571849823
-1.9047573804855347
-2.0068942308425903
-2.1345659494400024
-2.1856331825256348
-2.160100817680359
-2.083496332168579
-2.0579638481140137
-2.1856331825256348
-2.109031081199646
-2.083496332168579
-2.109031081199646
-2.160100817680359
-2.109031081199646
-2.109031081199646
-2.1345659494400024
-2.2111679315567017
-2.160100817680359
-2.1856331825256348
-2.2111679315567017
-2.236702799797058
-2.236702799797058
-2.2111679315567017
-2.2111679315567017
-2.313304901123047
-2.2622376680374146
-2.236702799797058
-2.2111679315567017
-2.2622376680374146
-2.236702799797058
-2.2111679315567017
-2.1856331825256348
-2.1345659494400024
-2.1856331825256348
-2.0579638481140137
-2.0324290990829468
-1.9813594222068787
-2.0324290990829468
-1.9047573804855347
-1.802620530128479
-1.7770856618881226
-1.7004836201667786
-1.598346769809723
-1.521744728088379
-1.521744728088379
-1.4451402425765991
-1.3430033922195435
-1.2153341174125671
-1.1387296468019485
-1.1897992938756943
-1.0621276013553143
-0.9344559088349342
-0.8833886906504631
-0.8067842125892639
-0.7557169944047928
-0.7301821708679199
-0.6535801291465759
-0.6535801291465759
-0.7046473324298859
-0.6791149377822876
-0.6280452907085419
-0.6280452907085419
-0.6791149377822876
-0.6535801291465759
-0.6791149377822876
-0.6791149377822876
-0.7301821708679199
-0.7557169944047928
-0.7301821708679199
-0.8067842125892639
-0.8578538596630096
-0.9089210778474808
-0.9599907323718071
-0.9344559088349342
-1.0110579477623105
-1.0110579477623105
-0.9855255577713251
-1.036592774093151
-1.0876624286174774
-1.0876624286174774
-1.0876624286174774
-1.0876624286174774
-1.0876624286174774
-1.1642644703388214
-1.113194815814495
-1.0876624286174774
-1.0621276013553143
-1.1642644703388214
-1.1387296468019485
-1.113194815814495
-1.1387296468019485
-1.1642644703388214
-1.1387296468019485
-1.113194815814495
-1.1387296468019485
-1.1642644703388214
-1.1642644703388214
-1.036592774093151
-1.036592774093151
-1.1387296468019485
-1.1897992938756943
-1.1897992938756943
-1.1642644703388214
-1.1387296468019485
-1.1642644703388214
-1.1897992938756943
-1.1387296468019485
-1.0876624286174774
-1.1387296468019485
-1.036592774093151
-1.0110579477623105
-1.1387296468019485
-1.1642644703388214
-1.113194815814495
-1.0876624286174774
-1.1387296468019485
-1.1897992938756943
-1.2408665120601654
-1.2153341174125671
-1.2408665120601654
-1.2153341174125671
-1.2153341174125671
-1.1897992938756943
-1.2153341174125671
-1.2153341174125671
-1.2664013504981995
-1.2408665120601654
-1.1897992938756943
-1.2408665120601654
-1.2919361591339111
-1.2664013504981995
-1.1642644703388214
-1.2153341174125671
-1.3174709975719452
-1.2919361591339111
-1.2408665120601654
-1.2664013504981995
-1.3685382008552551
-1.3174709975719452
-1.2919361591339111
-1.2153341174125671
-1.2408665120601654
-1.1897992938756943
-1.1642644703388214
-1.1897992938756943
-1.2408665120601654
-1.1897992938756943
-1.1642644703388214
-1.1642644703388214
-1.1642644703388214
-1.1642644703388214
-1.1642644703388214
-1.1642644703388214
-1.2408665120601654
-1.2919361591339111
-1.2153341174125671
-1.1642644703388214
-1.1387296468019485
-1.1387296468019485
-1.0876624286174774
-1.0621276013553143
-1.113194815814495
-1.2153341174125671
-1.113194815814495
-1.0621276013553143
-1.036592774093151
-1.036592774093151
-0.9599907323718071
-0.9089210778474808
-0.8323190361261368
-0.6535801291465759
-0.09182614088058472
1.5934333801269531
4.146857738494873
3.8659815788269043
1.6955702304840088
0.9550774097442627
1.1082839965820312
1.1848859786987305
1.210420846939087
1.2359530925750732
1.3891596794128418
1.3636248111724854
1.2614879608154297
1.338089942932129
1.4146945476531982
1.3636248111724854
1.2359530925750732
1.2359530925750732
1.1338162422180176
0.49546027183532715
-0.015224099159240723
-0.34716951847076416
-0.8067842125892639
-1.4706750810146332
-1.802620530128479
-1.674948811531067
-1.4706750810146332
-1.4706750810146332
-1.7004836201667786
-1.9047573804855347
-2.0324290990829468
-1.9558270573616028
-1.8281553387641907
-1.674948811531067
-1.598346769809723
-1.5728119611740112
-1.6494140028953552
-1.7004836201667786
-1.6494140028953552
-1.6238815784454346
-1.674948811531067
-1.7770856618881226
-1.726018488407135
-1.674948811531067
-1.598346769809723
-1.5472770929336548
-1.3685382008552551
-1.1897992938756943
-1.2153341174125671
-1.2919361591339111
-1.3430033922195435
-1.1387296468019485
-1.0876624286174774
-1.0621276013553143
-1.036592774093151
-1.0876624286174774
-1.0876624286174774
-1.1642644703388214
-1.1897992938756943
-1.2153341174125671
-1.2153341174125671
-1.3174709975719452
-1.3430033922195435
-1.4196078479290009
-1.521744728088379
-1.4962098896503448
-1.4706750810146332
-1.521744728088379
-1.5728119611740112
-1.6494140028953552
-1.6494140028953552
-1.4962098896503448
-1.3940730392932892
-1.3430033922195435
-1.4451402425765991
-1.4451402425765991
-1.4451402425765991
-1.4196078479290009
-1.4196078479290009
-1.3430033922195435
-1.2408665120601654
-1.1387296468019485
-1.0621276013553143
-0.9599907323718071
-0.9599907323718071
-0.8578538596630096
-0.8578538596630096
-0.7301821708679199
-0.5259084403514862
-0.42377156019210815
-0.34716951847076416
-0.37270188331604004
-0.29609984159469604
-0.29609984159469604
-0.3216347098350525
-0.3216347098350525
-0.1684281826019287
-0.09182614088058472
-0.21949779987335205
-0.34716951847076416
-0.34716951847076416
-0.2705650329589844
-0.29609984159469604
-0.34716951847076416
-0.34716951847076416
-0.3216347098350525
-0.4493063688278198
-0.4493063688278198
-0.5514432489871979
-0.6025104820728302
-0.5259084403514862
-0.6025104820728302
-0.6535801291465759
-0.6791149377822876
-0.7046473324298859
-0.7046473324298859
-0.7557169944047928
-0.7046473324298859
-0.6791149377822876
-0.7046473324298859
-0.8323190361261368
-0.8833886906504631
-0.8323190361261368
-0.7557169944047928
-0.7301821708679199
-0.6791149377822876
-0.5769780874252319
-0.6791149377822876
-0.7301821708679199
-0.7812518179416656
-0.7301821708679199
-0.7301821708679199
-0.7812518179416656
-0.7812518179416656
-0.7812518179416656
-0.8067842125892639
-0.8067842125892639
-0.8578538596630096
-0.8578538596630096
-0.8067842125892639
-0.8067842125892639
-0.8833886906504631
-0.8578538596630096
-0.8067842125892639
-0.8067842125892639
-0.8578538596630096
-0.8833886906504631
-0.8578538596630096
-0.8578538596630096
-0.9089210778474808
-0.8833886906504631
-0.9089210778474808
-0.9089210778474808
-0.8833886906504631
-0.9344559088349342
-0.9344559088349342
-0.8833886906504631
-0.9599907323718071
-0.9344559088349342
-0.9344559088349342
-0.8323190361261368
-0.9344559088349342
-0.9855255577713251
-0.8833886906504631
-0.9089210778474808
-0.9855255577713251
-0.9855255577713251
-0.9344559088349342
-0.9089210778474808
-0.9344559088349342
-0.9599907323718071
-0.9344559088349342
-0.9089210778474808
-0.9089210778474808
-0.9855255577713251
-0.9599907323718071
-0.9089210778474808
-0.9089210778474808
-0.9599907323718071
-0.9599907323718071
-0.9344559088349342
-0.8833886906504631
-0.9344559088349342
-1.0110579477623105
-0.9855255577713251
-0.9089210778474808
-0.9344559088349342
-1.0110579477623105
-0.9089210778474808
-0.8578538596630096
-0.9089210778474808
-0.9344559088349342
-0.8833886906504631
-0.8833886906504631
-0.8833886906504631
-0.8833886906504631
-0.9089210778474808
-0.7812518179416656
-0.8067842125892639
-0.7812518179416656
-0.6535801291465759
-0.42377156019210815
0.03584551811218262
1.2614879608154297
3.968118667602539
5.040556907653809
2.921215057373047
1.210420846939087
1.210420846939087
1.338089942932129
1.6189682483673096
1.6189682483673096
1.6955702304840088
1.823241949081421
1.7977070808410645
1.6189682483673096
1.6189682483673096
1.6955702304840088
1.6189682483673096
1.4402294158935547
1.159351110458374
0.8018733263015747
0.34225618839263916
-0.06629127264022827
-0.6280452907085419
-1.2919361591339111
-1.5472770929336548
-1.521744728088379
-1.3174709975719452
-1.3174709975719452
-1.3430033922195435
-1.5472770929336548
-1.6494140028953552
-1.726018488407135
-1.7004836201667786
-1.4962098896503448
-1.4196078479290009
-1.3430033922195435
-1.3174709975719452
-1.3685382008552551
-1.3940730392932892
-1.5472770929336548
-1.598346769809723
-1.598346769809723
-1.5472770929336548
-1.4962098896503448
-1.4962098896503448
-1.4451402425765991
-1.3940730392932892
-1.3940730392932892
-1.3685382008552551
-1.3430033922195435
-1.3174709975719452
-1.3685382008552551
-1.3430033922195435
-1.3174709975719452
-1.2919361591339111
-1.3940730392932892
-1.3685382008552551
-1.3685382008552551
-1.3430033922195435
-1.3940730392932892
-1.3940730392932892
-1.3430033922195435
-1.3430033922195435
-1.4196078479290009
-1.4706750810146332
-1.4196078479290009
-1.3685382008552551
-1.4196078479290009
-1.4706750810146332
-1.3940730392932892
-1.2919361591339111
-1.1897992938756943
-1.1642644703388214
-1.1387296468019485
-1.036592774093151
-0.9344559088349342
-0.8833886906504631
-0.7812518179416656
-0.6791149377822876
-0.6535801291465759
-0.6280452907085419
-0.5514432489871979
-0.5003736019134521
-0.3982367515563965
-0.37270188331604004
-0.34716951847076416
-0.3216347098350525
-0.29609984159469604
-0.34716951847076416
-0.3982367515563965
-0.2450326681137085
-0.21949779987335205
-0.19396299123764038
-0.19396299123764038
-0.19396299123764038
-0.1684281826019287
-0.21949779987335205
-0.21949779987335205
-0.29609984159469604
-0.29609984159469604
-0.29609984159469604
-0.37270188331604004
-0.3982367515563965
-0.37270188331604004
-0.4748387932777405
-0.5003736019134521
-0.5769780874252319
-0.5769780874252319
-0.6025104820728302
-0.6535801291465759
-0.6791149377822876
-0.6535801291465759
-0.6791149377822876
-0.6535801291465759
-0.7046473324298859
-0.7046473324298859
-0.7046473324298859
-0.6791149377822876
-0.7812518179416656
-0.7812518179416656
-0.7301821708679199
-0.7046473324298859
-0.8067842125892639
-0.7812518179416656
-0.7557169944047928
-0.7557169944047928
-0.8323190361261368
-0.8323190361261368
-0.7812518179416656
-0.7812518179416656
-0.8323190361261368
-0.8833886906504631
-0.9089210778474808
-0.8833886906504631
-0.8833886906504631
-0.9344559088349342
-0.8833886906504631
-0.9089210778474808
-0.9344559088349342
-1.0110579477623105
-0.9855255577713251
-1.0110579477623105
-1.0110579477623105
-1.0621276013553143
-1.0110579477623105
-0.9599907323718071
-0.9855255577713251
-1.036592774093151
-1.036592774093151
-1.0110579477623105
-0.9855255577713251
-1.0110579477623105
-1.0621276013553143
-1.0621276013553143
-1.0110579477623105
-1.0621276013553143
-1.0621276013553143
-1.036592774093151
-0.9855255577713251
-1.0110579477623105
-1.0876624286174774
-1.036592774093151
-1.036592774093151
-1.0621276013553143
-1.0876624286174774
-1.0110579477623105
-1.036592774093151
-1.0621276013553143
-1.0110579477623105
-1.0110579477623105
-1.0110579477623105
-1.0110579477623105
-1.0621276013553143
-1.113194815814495
-1.0110579477623105
-0.9855255577713251
-1.0876624286174774
-1.113194815814495
-1.036592774093151
-0.9855255577713251
-1.036592774093151
-1.113194815814495
-1.0876624286174774
-0.9599907323718071
-1.0110579477623105
-1.0621276013553143
-0.9855255577713251
-0.8578538596630096
-0.9599907323718071
-1.036592774093151
-0.9599907323718071
-0.9599907323718071
-0.9089210778474808
-0.9855255577713251
-0.9855255577713251
-0.8578538596630096
-0.8833886906504631
-0.9089210778474808
-0.8833886906504631
-0.7557169944047928
-0.7301821708679199
-0.7046473324298859
-0.4493063688278198
0.11244761943817139
1.6189682483673096
4.019186019897461
3.9936532974243164
3.482966899871826
1.2359530925750732
1.2614879608154297
1.2614879608154297
1.338089942932129
1.338089942932129
1.3636248111724854
1.2614879608154297
1.2870228290557861
1.2614879608154297
1.1848859786987305
1.1338162422180176
1.1082839965820312
0.9040101766586304
0.5975971221923828
0.16351723670959473
-0.19396299123764038
-0.5259084403514862
-0.9855255577713251
-1.6494140028953552
-2.160100817680359
-2.1345659494400024
-1.802620530128479
-1.6238815784454346
-1.4962098896503448
-1.4451402425765991
-1.4196078479290009
-1.4451402425765991
-1.4706750810146332
-1.2408665120601654
-1.0110579477623105
-0.9344559088349342
-0.9855255577713251
-1.036592774093151
-1.0876624286174774
-1.2408665120601654
-1.3430033922195435
-1.2919361591339111
-1.2153341174125671
-1.1387296468019485
-1.1642644703388214
-1.1387296468019485
-1.113194815814495
-1.0876624286174774
-1.1387296468019485
-1.113194815814495
-1.0621276013553143
-1.0110579477623105
-1.0621276013553143
-1.1387296468019485
-1.1387296468019485
-1.0876624286174774
-1.0876624286174774
-1.1897992938756943
-1.1642644703388214
-1.0876624286174774
-1.1642644703388214
-1.2664013504981995
-1.1387296468019485
-1.0876624286174774
-1.113194815814495
-1.1642644703388214
-1.0876624286174774
-1.0621276013553143
-1.036592774093151
-1.0621276013553143
-1.0621276013553143
-0.9855255577713251
-0.9089210778474808
-0.9599907323718071
-0.9855255577713251
-0.8578538596630096
-0.8067842125892639
-0.8067842125892639
-0.7812518179416656
-0.7301821708679199
-0.6280452907085419
-0.6025104820728302
-0.6025104820728302
-0.4493063688278198
-0.34716951847076416
-0.29609984159469604
-0.34716951847076416
-0.21949779987335205
-0.14289575815200806
-0.11736094951629639
-0.09182614088058472
-0.04075890779495239
0.06137800216674805
0.010310769081115723
-0.04075890779495239
0.03584551811218262
0.03584551811218262
0.010310769081115723
-0.015224099159240723
-0.04075890779495239
0.06137800216674805
0.06137800216674805
0.03584551811218262
-0.06629127264022827
-0.06629127264022827
-0.015224099159240723
-0.06629127264022827
-1.0876624286174774
-1.0621276013553143
-1.0110579477623105
-1.0876624286174774
-1.0621276013553143
-1.1387296468019485
-1.1387296468019485
-1.1642644703388214
-1.1897992938756943
-1.1642644703388214
-1.1387296468019485
-1.1642644703388214
-1.1897992938756943
-1.1897992938756943
-1.1387296468019485
-1.1897992938756943
-1.2664013504981995
-1.3174709975719452
-1.2153341174125671
-1.2664013504981995
-1.2408665120601654
-1.2664013504981995
-1.2153341174125671
-1.2664013504981995
-1.3174709975719452
-1.3174709975719452
-1.2408665120601654
-1.1897992938756943
-1.2664013504981995
-1.3430033922195435
-1.3174709975719452
-1.2919361591339111
-1.3174709975719452
-1.3685382008552551
-1.2919361591339111
-1.2664013504981995
-1.2408665120601654
-1.3174709975719452
-1.2919361591339111
-1.3174709975719452
-1.3430033922195435
-1.4451402425765991
-1.4196078479290009
-1.4196078479290009
-1.2919361591339111
-1.2919361591339111
-1.3174709975719452
-1.2919361591339111
-1.2153341174125671
-1.2408665120601654
-1.2153341174125671
-1.0876624286174774
-1.036592774093151
-1.113194815814495
-1.113194815814495
-1.0621276013553143
-1.036592774093151
-1.0621276013553143
-1.0876624286174774
-1.0876624286174774
-1.036592774093151
-1.0621276013553143
-1.2153341174125671
-1.2664013504981995
-1.2153341174125671
-1.1897992938756943
-1.1897992938756943
-1.0621276013553143
-0.7301821708679199
-0.09182614088058472
1.6955702304840088
3.789377212524414
4.146857738494873
1.2359530925750732
0.6231319904327393
0.8018733263015747
0.9806121587753296
1.1338162422180176
1.2614879608154297
1.3891596794128418
1.5678985118865967
1.644503116607666
1.5934333801269531
1.5678985118865967
1.8487768173217773
2.078585386276245
2.1041178703308105
2.0275156497955322
1.9764461517333984
1.7211050987243652
1.3125576972961426
0.9550774097442627
0.4188581705093384
-0.2450326681137085
-0.7557169944047928
-0.9855255577713251
-0.9089210778474808
-0.8323190361261368
-0.9599907323718071
-1.2664013504981995
-1.5728119611740112
-1.7515508532524109
-1.8281553387641907
-1.879222571849823
-1.9302921891212463
-1.879222571849823
-1.9047573804855347
-1.9813594222068787
-2.083496332168579
-2.109031081199646
-2.1345659494400024
-2.236702799797058
-2.389906883239746
-2.389906883239746
-2.236702799797058
-2.2877700328826904
-2.3388396501541138
-2.236702799797058
-2.1345659494400024
-2.109031081199646
-2.160100817680359
-2.236702799797058
-2.2111679315567017
-2.1345659494400024
-2.1345659494400024
-2.160100817680359
-2.160100817680359
-2.1345659494400024
-2.160100817680359
-2.236702799797058
-2.1345659494400024
-2.083496332168579
-2.109031081199646
-2.160100817680359
-2.160100817680359
-2.0579638481140137
-2.0324290990829468
-2.083496332168579
-2.1345659494400024
-2.0324290990829468
-2.0068942308425903
-2.0579638481140137
-2.0068942308425903
-1.9302921891212463
-1.879222571849823
-1.8281553387641907
-1.802620530128479
-1.7004836201667786
-1.674948811531067
-1.6494140028953552
-1.598346769809723
-1.4706750810146332
-1.3685382008552551
-1.3430033922195435
-1.4451402425765991
-1.2664013504981995
-1.2408665120601654
-1.1642644703388214
-1.1642644703388214
-1.0621276013553143
-1.0110579477623105
-0.9855255577713251
-1.036592774093151
-0.9599907323718071
-0.9344559088349342
-0.9599907323718071
-1.0110579477623105
-0.9344559088349342
-0.8833886906504631
-0.9344559088349342
-0.9855255577713251
-1.0110579477623105
-0.9855255577713251
-0.9855255577713251
-1.0621276013553143
-1.1642644703388214
-1.0876624286174774
-1.113194815814495
-1.113194815814495
-1.1897992938756943
-1.113194815814495
-1.1897992938756943
-1.2153341174125671
-1.2408665120601654
-1.2153341174125671
-1.1387296468019485
-1.1642644703388214
-1.2408665120601654
-1.2664013504981995
-1.2153341174125671
-1.1642644703388214
-1.2664013504981995
-1.2664013504981995
-1.2408665120601654
-1.2153341174125671
-1.2153341174125671
-1.2408665120601654
-1.1897992938756943
-1.1642644703388214
-1.2153341174125671
-1.3430033922195435
-1.2408665120601654
-1.2153341174125671
-1.2153341174125671
-1.2919361591339111
-1.2153341174125671
-1.1897992938756943
-1.1897992938756943
-1.2664013504981995
-1.2664013504981995
-1.2153341174125671
-1.3174709975719452
-1.3174709975719452
-1.2919361591339111
-1.2919361591339111
-1.2408665120601654
-1.3174709975719452
-1.2919361591339111
-1.2919361591339111
-1.2664013504981995
-1.2664013504981995
-1.3430033922195435
-1.3174709975719452
-1.3174709975719452
-1.3685382008552551
-1.3940730392932892
-1.4451402425765991
-1.3940730392932892
-1.4196078479290009
-1.521744728088379
-1.4451402425765991
-1.3940730392932892
-1.4196078479290009
-1.4962098896503448
-1.4962098896503448
-1.4706750810146332
-1.5472770929336548
-1.4962098896503448
-1.521744728088379
-1.4451402425765991
-1.4451402425765991
-1.521744728088379
-1.5472770929336548
-1.4962098896503448
-1.521744728088379
-1.5472770929336548
-1.5728119611740112
-1.5728119611740112
-1.4962098896503448
-1.5472770929336548
-1.598346769809723
-1.5472770929336548
-1.4962098896503448
-1.5472770929336548
-1.5728119611740112
-1.4962098896503448
-1.4451402425765991
-1.5472770929336548
-1.598346769809723
-1.5728119611740112
-1.521744728088379
-1.521744728088379
-1.5472770929336548
-1.4962098896503448
-1.4962098896503448
-1.4706750810146332
-1.5472770929336548
-1.4962098896503448
-1.4962098896503448
-1.4962098896503448
-1.4962098896503448
-1.5472770929336548
-1.521744728088379
-1.3940730392932892
-1.4451402425765991
-1.4962098896503448
-1.3685382008552551
-1.2919361591339111
-1.3174709975719452
-1.2408665120601654
-0.8833886906504631
-0.29609984159469604
1.465761661529541
3.661707878112793
3.099954128265381
1.2614879608154297
0.5975971221923828
0.7763384580612183
0.8784753084182739
0.9550774097442627
1.0061471462249756
1.0061471462249756
1.0061471462249756
0.9550774097442627
0.8784753084182739
0.9040101766586304
0.852940559387207
0.852940559387207
0.7763384580612183
0.5209951400756836
-0.04075890779495239
-0.4748387932777405
-0.8323190361261368
-1.3430033922195435
-1.9047573804855347
-1.9813594222068787
-1.7515508532524109
-1.521744728088379
-1.5472770929336548
-1.674948811531067
-1.802620530128479
-1.9302921891212463
-1.9813594222068787
-1.8536901473999023
-1.802620530128479
-1.802620530128479
-1.8536901473999023
-1.879222571849823
-1.9047573804855347
-2.0068942308425903
-2.1345659494400024
-2.1856331825256348
-2.160100817680359
-2.083496332168579
-2.0579638481140137
-2.1856331825256348
-2.109031081199646
-2.083496332168579
-2.109031081199646
-2.160100817680359
-2.109031081199646
-2.109031081199646
-2.1345659494400024
-2.2111679315567017
-2.160100817680359
-2.1856331825256348
-2.2111679315567017
-2.236702799797058
-2.236702799797058
-2.2111679315567017
-2.2111679315567017
-2.313304901123047
-2.2622376680374146
-2.236702799797058
-2.2111679315567017
-2.2622376680374146
-2.236702799797058
-2.2111679315567017
-2.1856331825256348
-2.1345659494400024
-2.1856331825256348
-2.0579638481140137
-2.0324290990829468
-1.9813594222068787
-2.0324290990829468
-1.9047573804855347
-1.802620530128479
-1.7770856618881226
-1.7004836201667786
-1.598346769809723
-1.521744728088379
-1.521744728088379
-1.4451402425765991
-1.3430033922195435
-1.2153341174125671
-1.1387296468019485
-1.1897992938756943
-1.0621276013553143
-0.9344559088349342
-0.8833886906504631
-0.8067842125892639
-0.7557169944047928
-0.7301821708679199
-0.6535801291465759
-0.6535801291465759
-0.7046473324298859
-0.6791149377822876
-0.6280452907085419
-0.6280452907085419
-0.6791149377822876
-0.6535801291465759
-0.6791149377822876
-0.6791149377822876
-0.7301821708679199
-0.7557169944047928
-0.7301821708679199
-0.8067842125892639
-0.8578538596630096
-0.9089210778474808
-0.9599907323718071
-0.9344559088349342
-1.0110579477623105
-1.0110579477623105
-0.9855255577713251
-1.036592774093151
-1.0876624286174774
-1.0876624286174774
-1.0876624286174774
-1.0876624286174774
-1.0876624286174774
-1.1642644703388214
-1.113194815814495
-1.0876624286174774
-1.0621276013553143
-1.1642644703388214
-1.1387296468019485
-1.113194815814495
-1.1387296468019485
-1.1642644703388214
-1.1387296468019485
-1.113194815814495
-1.1387296468019485
-1.1642644703388214
-1.1642644703388214
-1.036592774093151
-1.036592774093151
-1.1387296468019485
-1.1897992938756943
-1.1897992938756943
-1.1642644703388214
-1.1387296468019485
-1.1642644703388214
-1.1897992938756943
-1.1387296468019485
-1.0876624286174774
-1.1387296468019485
-1.036592774093151
-1.0110579477623105
-1.1387296468019485
-1.1642644703388214
-1.113194815814495
-1.0876624286174774
-1.1387296468019485
-1.1897992938756943
-1.2408665120601654
-1.2153341174125671
-1.2408665120601654
-1.2153341174125671
-1.2153341174125671
-1.1897992938756943
-1.2153341174125671
-1.2153341174125671
-1.2664013504981995
-1.2408665120601654
-1.1897992938756943
-1.2408665120601654
-1.2919361591339111
-1.2664013504981995
-1.1642644703388214
-1.2153341174125671
-1.3174709975719452
-1.2919361591339111
-1.2408665120601654
-1.2664013504981995
-1.3685382008552551
-1.3174709975719452
-1.2919361591339111
-1.2153341174125671
-1.2408665120601654
-1.1897992938756943
-1.1642644703388214
-1.1897992938756943
-1.2408665120601654
-1.1897992938756943
-1.1642644703388214
-1.1642644703388214
-1.1642644703388214
-1.1642644703388214
-1.1642644703388214
-1.1642644703388214
-1.2408665120601654
-1.2919361591339111
-1.2153341174125671
-1.1642644703388214
-1.1387296468019485
-1.1387296468019485
-1.0876624286174774
-1.0621276013553143
-1.113194815814495
-1.2153341174125671
-1.113194815814495
-1.0621276013553143
-1.036592774093151
-1.036592774093151
-0.9599907323718071
-0.9089210778474808
-0.8323190361261368
-0.6535801291465759
-0.09182614088058472
1.5934333801269531
4.146857738494873
3.8659815788269043
1.6955702304840088
0.9550774097442627
1.1082839965820312
1.1848859786987305
1.210420846939087
1.2359530925750732
1.3891596794128418
1.3636248111724854
1.2614879608154297
1.338089942932129
1.4146945476531982
1.3636248111724854
1.2359530925750732
1.2359530925750732
1.1338162422180176
0.49546027183532715
-0.015224099159240723
-0.34716951847076416
-0.8067842125892639
-1.4706750810146332
-1.802620530128479
-1.674948811531067
-1.4706750810146332
-1.4706750810146332
-1.7004836201667786
-1.9047573804855347
-2.0324290990829468
-1.9558270573616028
-1.8281553387641907
-1.674948811531067
-1.598346769809723
-1.5728119611740112
-1.6494140028953552
-1.7004836201667786
-1.6494140028953552
-1.6238815784454346
-1.674948811531067
-1.7770856618881226
-1.726018488407135
-1.674948811531067
-1.598346769809723
-1.5472770929336548
-1.3685382008552551
-1.1897992938756943
-1.2153341174125671
-1.2919361591339111
-1.3430033922195435
-1.1387296468019485
-1.0876624286174774
-1.0621276013553143
-1.036592774093151
-1.0876624286174774
-1.0876624286174774
-1.1642644703388214
-1.1897992938756943
-1.2153341174125671
-1.2153341174125671
-1.3174709975719452
-1.3430033922195435
-1.4196078479290009
-1.521744728088379
-1.4962098896503448
-1.4706750810146332
-1.521744728088379
-1.5728119611740112
-1.6494140028953552
-1.6494140028953552
-1.4962098896503448
-1.3940730392932892
-1.3430033922195435
-1.4451402425765991
-1.4451402425765991
-1.4451402425765991
-1.4196078479290009
-1.4196078479290009
-1.3430033922195435
-1.2408665120601654
-1.1387296468019485
-1.0621276013553143
-0.9599907323718071
-0.9599907323718071
-0.8578538596630096
-0.8578538596630096
-0.7301821708679199
-0.5259084403514862
-0.42377156019210815
-0.34716951847076416
-0.37270188331604004
-0.29609984159469604
-0.29609984159469604
-0.3216347098350525
-0.3216347098350525
-0.1684281826019287
-0.09182614088058472
-0.21949779987335205
-0.34716951847076416
-0.34716951847076416
-0.2705650329589844
-0.29609984159469604
-0.34716951847076416
-0.34716951847076416
-0.3216347098350525
-0.4493063688278198
-0.4493063688278198
-0.5514432489871979
-0.6025104820728302
-0.5259084403514862
-0.6025104820728302
-0.6535801291465759
-0.6791149377822876
-0.7046473324298859
-0.7046473324298859
-0.7557169944047928
-0.7046473324298859
-0.6791149377822876
-0.7046473324298859
-0.8323190361261368
-0.8833886906504631
-0.8323190361261368
-0.7557169944047928
-0.7301821708679199
-0.6791149377822876
-0.5769780874252319
-0.6791149377822876
-0.7301821708679199
-0.7812518179416656
-0.7301821708679199
-0.7301821708679199
-0.7812518179416656
-0.7812518179416656
-0.7812518179416656
-0.8067842125892639
-0.8067842125892639
-0.8578538596630096
-0.8578538596630096
-0.8067842125892639
-0.8067842125892639
-0.8833886906504631
-0.8578538596630096
-0.8067842125892639
-0.8067842125892639
-0.8578538596630096
-0.8833886906504631
-0.8578538596630096
-0.8578538596630096
-0.9089210778474808
-0.8833886906504631
-0.9089210778474808
-0.9089210778474808
-0.8833886906504631
-0.9344559088349342
-0.9344559088349342
-0.8833886906504631
-0.9599907323718071
-0.9344559088349342
-0.9344559088349342
-0.8323190361261368
-0.9344559088349342
-0.9855255577713251
-0.8833886906504631
-0.9089210778474808
-0.9855255577713251
-0.9855255577713251
-0.9344559088349342
-0.9089210778474808
-0.9344559088349342
-0.9599907323718071
-0.9344559088349342
-0.9089210778474808
-0.9089210778474808
-0.9855255577713251
-0.9599907323718071
-0.9089210778474808
-0.9089210778474808
-0.9599907323718071
-0.9599907323718071
-0.9344559088349342
-0.8833886906504631
-0.9344559088349342
-1.0110579477623105
-0.9855255577713251
-0.9089210778474808
-0.9344559088349342
-1.0110579477623105
-0.9089210778474808
-0.8578538596630096
-0.9089210778474808
-0.9344559088349342
-0.8833886906504631
-0.8833886906504631
-0.8833886906504631
-0.8833886906504631
-0.9089210778474808
-0.7812518179416656
-0.8067842125892639
-0.7812518179416656
-0.6535801291465759
-0.42377156019210815
0.03584551811218262
1.2614879608154297
3.968118667602539
5.040556907653809
2.921215057373047
1.210420846939087
1.210420846939087
1.338089942932129
1.6189682483673096
1.6189682483673096
1.6955702304840088
1.823241949081421
1.7977070808410645
1.6189682483673096
1.6189682483673096
1.6955702304840088
1.6189682483673096
1.4402294158935547
1.159351110458374
0.8018733263015747
0.34225618839263916
-0.06629127264022827
-0.6280452907085419
-1.2919361591339111
-1.5472770929336548
-1.521744728088379
-1.3174709975719452
-1.3174709975719452
-1.3430033922195435
-1.5472770929336548
-1.6494140028953552
-1.726018488407135
-1.7004836201667786
-1.4962098896503448
-1.4196078479290009
-1.3430033922195435
-1.3174709975719452
-1.3685382008552551
-1.3940730392932892
-1.5472770929336548
-1.598346769809723
-1.598346769809723
-1.5472770929336548
-1.4962098896503448
-1.4962098896503448
-1.4451402425765991
-1.3940730392932892
-1.3940730392932892
-1.3685382008552551
-1.3430033922195435
-1.3174709975719452
-1.3685382008552551
-1.3430033922195435
-1.3174709975719452
-1.2919361591339111
-1.3940730392932892
-1.3685382008552551
-1.3685382008552551
-1.3430033922195435
-1.3940730392932892
-1.3940730392932892
-1.3430033922195435
-1.3430033922195435
-1.4196078479290009
-1.4706750810146332
-1.4196078479290009
-1.3685382008552551
-1.4196078479290009
-1.4706750810146332
-1.3940730392932892
-1.2919361591339111
-1.1897992938756943
-1.1642644703388214
-1.1387296468019485
-1.036592774093151
-0.9344559088349342
-0.8833886906504631
-0.7812518179416656
-0.6791149377822876
-0.6535801291465759
-0.6280452907085419
-0.5514432489871979
-0.5003736019134521
-0.3982367515563965
-0.37270188331604004
-0.34716951847076416
-0.3216347098350525
-0.29609984159469604
-0.34716951847076416
-0.3982367515563965
-0.2450326681137085
-0.21949779987335205
-0.19396299123764038
-0.19396299123764038
-0.19396299123764038
-0.1684281826019287
-0.21949779987335205
-0.21949779987335205
-0.29609984159469604
-0.29609984159469604
-0.29609984159469604
-0.37270188331604004
-0.3982367515563965
-0.37270188331604004
-0.4748387932777405
-0.5003736019134521
-0.5769780874252319
-0.5769780874252319
-0.6025104820728302
-0.6535801291465759
-0.6791149377822876
-0.6535801291465759
-0.6791149377822876
-0.6535801291465759
-0.7046473324298859
-0.7046473324298859
-0.7046473324298859
-0.6791149377822876
-0.7812518179416656
-0.7812518179416656
-0.7301821708679199
-0.7046473324298859
-0.8067842125892639
-0.7812518179416656
-0.7557169944047928
-0.7557169944047928
-0.8323190361261368
-0.8323190361261368
-0.7812518179416656
-0.7812518179416656
-0.8323190361261368
-0.8833886906504631
-0.9089210778474808
-0.8833886906504631
-0.8833886906504631
-0.9344559088349342
-0.8833886906504631
-0.9089210778474808
-0.9344559088349342
-1.0110579477623105
-0.9855255577713251
-1.0110579477623105
-1.0110579477623105
-1.0621276013553143
-1.0110579477623105
-0.9599907323718071
-0.9855255577713251
-1.036592774093151
-1.036592774093151
-1.0110579477623105
-0.9855255577713251
-1.0110579477623105
-1.0621276013553143
-1.0621276013553143
-1.0110579477623105
-1.0621276013553143
-1.0621276013553143
-1.036592774093151
-0.9855255577713251
-1.0110579477623105
-1.0876624286174774
-1.036592774093151
-1.036592774093151
-1.0621276013553143
-1.0876624286174774
-1.0110579477623105
-1.036592774093151
-1.0621276013553143
-1.0110579477623105
-1.0110579477623105
-1.0110579477623105
-1.0110579477623105
-1.0621276013553143
-1.113194815814495
-1.0110579477623105
-0.9855255577713251
-1.0876624286174774
-1.113194815814495
-1.036592774093151
-0.9855255577713251
-1.036592774093151
-1.113194815814495
-1.0876624286174774
-0.9599907323718071
-1.0110579477623105
-1.0621276013553143
-0.9855255577713251
-0.8578538596630096
-0.9599907323718071
-1.036592774093151
-0.9599907323718071
-0.9599907323718071
-0.9089210778474808
-0.9855255577713251
-0.9855255577713251
-0.8578538596630096
-0.8833886906504631
-0.9089210778474808
-0.8833886906504631
-0.7557169944047928
-0.7301821708679199
-0.7046473324298859
-0.4493063688278198
0.11244761943817139
1.6189682483673096
4.019186019897461
3.9936532974243164
3.482966899871826
1.2359530925750732
1.2614879608154297
1.2614879608154297
1.338089942932129
1.338089942932129
1.3636248111724854
1.2614879608154297
1.2870228290557861
1.2614879608154297
1.1848859786987305
1.1338162422180176
1.1082839965820312
0.9040101766586304
0.5975971221923828
0.16351723670959473
-0.19396299123764038
-0.5259084403514862
-0.9855255577713251
-1.6494140028953552
-2.160100817680359
-2.1345659494400024
-1.802620530128479
-1.6238815784454346
-1.4962098896503448
-1.4451402425765991
-1.4196078479290009
-1.4451402425765991
-1.4706750810146332
-1.2408665120601654
-1.0110579477623105
-0.9344559088349342
-0.9855255577713251
-1.036592774093151
-1.0876624286174774
-1.2408665120601654
-1.3430033922195435
-1.2919361591339111
-1.2153341174125671
-1.1387296468019485
-1.1642644703388214
-1.1387296468019485
-1.113194815814495
-1.0876624286174774
-1.1387296468019485
-1.113194815814495
-1.0621276013553143
-1.0110579477623105
-1.0621276013553143
-1.1387296468019485
-1.1387296468019485
-1.0876624286174774
-1.0876624286174774
-1.1897992938756943
-1.1642644703388214
-1.0876624286174774
-1.1642644703388214
-1.2664013504981995
-1.1387296468019485
-1.0876624286174774
-1.113194815814495
-1.1642644703388214
-1.0876624286174774
-1.0621276013553143
-1.036592774093151
-1.0621276013553143
-1.0621276013553143
-0.9855255577713251
-0.9089210778474808
-0.9599907323718071
-0.9855255577713251
-0.8578538596630096
-0.8067842125892639
-0.8067842125892639
-0.7812518179416656
-0.7301821708679199
-0.6280452907085419
-0.6025104820728302
-0.6025104820728302
-0.4493063688278198
-0.34716951847076416
-0.29609984159469604
-0.34716951847076416
-0.21949779987335205
-0.14289575815200806
-0.11736094951629639
-0.09182614088058472
-0.04075890779495239
0.06137800216674805
0.010310769081115723
-0.04075890779495239
0.03584551811218262
0.03584551811218262
0.010310769081115723
-0.015224099159240723
-0.04075890779495239
0.06137800216674805
0.06137800216674805
0.03584551811218262
-0.06629127264022827
-0.06629127264022827
-0.015224099159240723
-0.06629127264022827
-1.0876624286174774
-1.0621276013553143
-1.0110579477623105
-1.0876624286174774
-1.0621276013553143
-1.1387296468019485
-1.1387296468019485
-1.1642644703388214
-1.1897992938756943
-1.1642644703388214
-1.1387296468019485
-1.1642644703388214
-1.1897992938756943
-1.1897992938756943
-1.1387296468019485
-1.1897992938756943
-1.2664013504981995
-1.3174709975719452
-1.2153341174125671
-1.2664013504981995
-1.2408665120601654
-1.2664013504981995
-1.2153341174125671
-1.2664013504981995
-1.3174709975719452
-1.3174709975719452
-1.2408665120601654
-1.1897992938756943
-1.2664013504981995
-1.3430033922195435
-1.3174709975719452
-1.2919361591339111
-1.3174709975719452
-1.3685382008552551
-1.2919361591339111
-1.2664013504981995
-1.2408665120601654
-1.3174709975719452
-1.2919361591339111
-1.3174709975719452
-1.3430033922195435
-1.4451402425765991
-1.4196078479290009
-1.4196078479290009
-1.2919361591339111
-1.2919361591339111
-1.3174709975719452
-1.2919361591339111
-1.2153341174125671
-1.2408665120601654
-1.2153341174125671
-1.0876624286174774
-1.036592774093151
-1.113194815814495
-1.113194815814495
-1.0621276013553143
-1.036592774093151
-1.0621276013553143
-1.0876624286174774
-1.0876624286174774
-1.036592774093151
-1.0621276013553143
-1.2153341174125671
-1.2664013504981995
-1.2153341174125671
-1.1897992938756943
-1.1897992938756943
-1.0621276013553143
-0.7301821708679199
-0.09182614088058472
1.6955702304840088
3.789377212524414
4.146857738494873
1.2359530925750732
0.6231319904327393
0.8018733263015747
0.9806121587753296
1.1338162422180176
1.2614879608154297
1.3891596794128418
1.5678985118865967
1.644503116607666
1.5934333801269531
1.5678985118865967
1.8487768173217773
2.078585386276245
2.1041178703308105
2.0275156497955322
1.9764461517333984
1.7211050987243652
1.3125576972961426
0.9550774097442627
0.4188581705093384
-0.2450326681137085
-0.7557169944047928
-0.9855255577713251
-0.9089210778474808
-0.8323190361261368
-0.9599907323718071
-1.2664013504981995
-1.5728119611740112
-1.7515508532524109
-1.8281553387641907
-1.879222571849823
-1.9302921891212463
-1.879222571849823
-1.9047573804855347
-1.9813594222068787
-2.083496332168579
-2.109031081199646
-2.1345659494400024
-2.236702799797058
-2.389906883239746
-2.389906883239746
-2.236702799797058
-2.2877700328826904
-2.3388396501541138
-2.236702799797058
-2.1345659494400024
-2.109031081199646
-2.160100817680359
-2.236702799797058
-2.2111679315567017
-2.1345659494400024
-2.1345659494400024
-2.160100817680359
-2.160100817680359
-2.1345659494400024
-2.160100817680359
-2.236702799797058
-2.1345659494400024
-2.083496332168579
-2.109031081199646
-2.160100817680359
-2.160100817680359
-2.0579638481140137
-2.0324290990829468
-2.083496332168579
-2.1345659494400024
-2.0324290990829468
-2.0068942308425903
-2.0579638481140137
-2.0068942308425903
-1.9302921891212463
-1.879222571849823
-1.8281553387641907
-1.802620530128479
-1.7004836201667786
-1.674948811531067
-1.6494140028953552
-1.598346769809723
-1.4706750810146332
-1.3685382008552551
-1.3430033922195435
-1.4451402425765991
-1.2664013504981995
-1.2408665120601654
-1.1642644703388214
-1.1642644703388214
-1.0621276013553143
-1.0110579477623105
-0.9855255577713251
-1.036592774093151
-0.9599907323718071
-0.9344559088349342
-0.9599907323718071
-1.0110579477623105
-0.9344559088349342
-0.8833886906504631
-0.9344559088349342
-0.9855255577713251
-1.0110579477623105
-0.9855255577713251
-0.9855255577713251
-1.0621276013553143
-1.1642644703388214
-1.0876624286174774
-1.113194815814495
-1.113194815814495
-1.1897992938756943
-1.113194815814495
-1.1897992938756943
-1.2153341174125671
-1.2408665120601654
-1.2153341174125671
-1.1387296468019485
-1.1642644703388214
-1.2408665120601654
-1.2664013504981995
-1.2153341174125671
-1.1642644703388214
-1.2664013504981995
-1.2664013504981995
-1.2408665120601654
-1.2153341174125671
-1.2153341174125671
-1.2408665120601654
-1.1897992938756943
-1.1642644703388214
-1.2153341174125671
-1.3430033922195435
-1.2408665120601654
-1.2153341174125671
-1.2153341174125671
-1.2919361591339111
-1.2153341174125671
-1.1897992938756943
-1.1897992938756943
-1.2664013504981995
-1.2664013504981995
-1.2153341174125671
-1.3174709975719452
-1.3174709975719452
-1.2919361591339111
-1.2919361591339111
-1.2408665120601654
-1.3174709975719452
-1.2919361591339111
-1.2919361591339111
-1.2664013504981995
-1.2664013504981995
-1.3430033922195435
-1.3174709975719452
-1.3174709975719452
-1.3685382008552551
-1.3940730392932892
-1.4451402425765991
-1.3940730392932892
-1.4196078479290009
-1.521744728088379
-1.4451402425765991
-1.3940730392932892
-1.4196078479290009
-1.4962098896503448
-1.4962098896503448
-1.4706750810146332
-1.5472770929336548
-1.4962098896503448
-1.521744728088379
-1.4451402425765991
-1.4451402425765991
-1.521744728088379
-1.5472770929336548
-1.4962098896503448
-1.521744728088379
-1.5472770929336548
-1.5728119611740112
-1.5728119611740112
-1.4962098896503448
-1.5472770929336548
-1.598346769809723
-1.5472770929336548
-1.4962098896503448
-1.5472770929336548
-1.5728119611740112
-1.4962098896503448
-1.4451402425765991
-1.5472770929336548
-1.598346769809723
-1.5728119611740112
-1.521744728088379
-1.521744728088379
-1.5472770929336548
-1.4962098896503448
-1.4962098896503448
-1.4706750810146332
-1.5472770929336548
-1.4962098896503448
-1.4962098896503448
-1.4962098896503448
-1.4962098896503448
-1.5472770929336548
-1.521744728088379
-1.3940730392932892
-1.4451402425765991
-1.4962098896503448
-1.3685382008552551
-1.2919361591339111
-1.3174709975719452
-1.2408665120601654
-0.8833886906504631
-0.29609984159469604
1.465761661529541
3.661707878112793
3.099954128265381
1.2614879608154297
0.5975971221923828
0.7763384580612183
0.8784753084182739
0.9550774097442627
1.0061471462249756
1.0061471462249756
1.0061471462249756
0.9550774097442627
0.8784753084182739
0.9040101766586304
0.852940559387207
0.852940559387207
0.7763384580612183
0.5209951400756836
-0.04075890779495239
-0.4748387932777405
-0.8323190361261368
-1.3430033922195435
-1.9047573804855347
-1.9813594222068787
-1.7515508532524109
-1.521744728088379
-1.5472770929336548
-1.674948811531067
-1.802620530128479
-1.9302921891212463
-1.9813594222068787
-1.8536901473999023
-1.802620530128479
-1.802620530128479
-1.8536901473999023
-1.879222571849823
-1.9047573804855347
-2.0068942308425903
-2.1345659494400024
-2.1856331825256348
-2.160100817680359
-2.083496332168579
-2.0579638481140137
-2.1856331825256348
-2.109031081199646
-2.083496332168579
-2.109031081199646
-2.160100817680359
-2.109031081199646
-2.109031081199646
-2.1345659494400024
-2.2111679315567017
-2.160100817680359
-2.1856331825256348
-2.2111679315567017
-2.236702799797058
-2.236702799797058
-2.2111679315567017
-2.2111679315567017
-2.313304901123047
-2.2622376680374146
-2.236702799797058
-2.2111679315567017
-2.2622376680374146
-2.236702799797058
-2.2111679315567017
-2.1856331825256348
-2.1345659494400024
-2.1856331825256348
-2.0579638481140137
-2.0324290990829468
-1.9813594222068787
-2.0324290990829468
-1.9047573804855347
-1.802620530128479
-1.7770856618881226
-1.7004836201667786
-1.598346769809723
-1.521744728088379
-1.521744728088379
-1.4451402425765991
-1.3430033922195435
-1.2153341174125671
-1.1387296468019485
-1.1897992938756943
-1.0621276013553143
-0.9344559088349342
-0.8833886906504631
-0.8067842125892639
-0.7557169944047928
-0.7301821708679199
-0.6535801291465759
-0.6535801291465759
-0.7046473324298859
-0.6791149377822876
-0.6280452907085419
-0.6280452907085419
-0.6791149377822876
-0.6535801291465759
-0.6791149377822876
-0.6791149377822876
-0.7301821708679199
-0.7557169944047928
-0.7301821708679199
-0.8067842125892639
-0.8578538596630096
-0.9089210778474808
-0.9599907323718071
-0.9344559088349342
-1.0110579477623105
-1.0110579477623105
-0.9855255577713251
-1.036592774093151
-1.0876624286174774
-1.0876624286174774
-1.0876624286174774
-1.0876624286174774
-1.0876624286174774
-1.1642644703388214
-1.113194815814495
-1.0876624286174774
-1.0621276013553143
-1.1642644703388214
-1.1387296468019485
-1.113194815814495
-1.1387296468019485
-1.1642644703388214
-1.1387296468019485
-1.113194815814495
-1.1387296468019485
-1.1642644703388214
-1.1642644703388214
-1.036592774093151
-1.036592774093151
-1.1387296468019485
-1.1897992938756943
-1.1897992938756943
-1.1642644703388214
-1.1387296468019485
-1.1642644703388214
-1.1897992938756943
-1.1387296468019485
-1.0876624286174774
-1.1387296468019485
-1.036592774093151
-1.0110579477623105
-1.1387296468019485
-1.1642644703388214
-1.113194815814495
-1.0876624286174774
-1.1387296468019485
-1.1897992938756943
-1.2408665120601654
-1.2153341174125671
-1.2408665120601654
-1.2153341174125671
-1.2153341174125671
-1.1897992938756943
-1.2153341174125671
-1.2153341174125671
-1.2664013504981995
-1.2408665120601654
-1.1897992938756943
-1.2408665120601654
-1.2919361591339111
-1.2664013504981995
-1.1642644703388214
-1.2153341174125671
-1.3174709975719452
-1.2919361591339111
-1.2408665120601654
-1.2664013504981995
-1.3685382008552551
-1.3174709975719452
-1.2919361591339111
-1.2153341174125671
-1.2408665120601654
-1.1897992938756943
-1.1642644703388214
-1.1897992938756943
-1.2408665120601654
-1.1897992938756943
-1.1642644703388214
-1.1642644703388214
-1.1642644703388214
-1.1642644703388214
-1.1642644703388214
-1.1642644703388214
-1.2408665120601654
-1.2919361591339111
-1.2153341174125671
-1.1642644703388214
-1.1387296468019485
-1.1387296468019485
-1.0876624286174774
-1.0621276013553143
-1.113194815814495
-1.2153341174125671
-1.113194815814495
-1.0621276013553143
-1.036592774093151
-1.036592774093151
-0.9599907323718071
-0.9089210778474808
-0.8323190361261368
-0.6535801291465759
-0.09182614088058472
1.5934333801269531
4.146857738494873
3.8659815788269043
1.6955702304840088
0.9550774097442627
1.1082839965820312
1.1848859786987305
1.210420846939087
1.2359530925750732
1.3891596794128418
1.3636248111724854
1.2614879608154297
1.338089942932129
1.4146945476531982
1.3636248111724854
1.2359530925750732
1.2359530925750732
1.1338162422180176
0.49546027183532715
-0.015224099159240723
-0.34716951847076416
-0.8067842125892639
-1.4706750810146332
-1.802620530128479
-1.674948811531067
-1.4706750810146332
-1.4706750810146332
-1.7004836201667786
-1.9047573804855347
-2.0324290990829468
-1.9558270573616028
-1.8281553387641907
-1.674948811531067
-1.598346769809723
-1.5728119611740112
-1.6494140028953552
-1.7004836201667786
-1.6494140028953552
-1.6238815784454346
-1.674948811531067
-1.7770856618881226
-1.726018488407135
-1.674948811531067
-1.598346769809723
-1.5472770929336548
-1.3685382008552551
-1.1897992938756943
-1.2153341174125671
-1.2919361591339111
-1.3430033922195435
-1.1387296468019485
-1.0876624286174774
-1.0621276013553143
-1.036592774093151
-1.0876624286174774
-1.0876624286174774
-1.1642644703388214
-1.1897992938756943
-1.2153341174125671
-1.2153341174125671
-1.3174709975719452
-1.3430033922195435
-1.4196078479290009
-1.521744728088379
-1.4962098896503448
-1.4706750810146332
-1.521744728088379
-1.5728119611740112
-1.6494140028953552
-1.6494140028953552
-1.4962098896503448
-1.3940730392932892
-1.3430033922195435
-1.4451402425765991
-1.4451402425765991
-1.4451402425765991
-1.4196078479290009
-1.4196078479290009
-1.3430033922195435
-1.2408665120601654
-1.1387296468019485
-1.0621276013553143
-0.9599907323718071
-0.9599907323718071
-0.8578538596630096
-0.8578538596630096
-0.7301821708679199
-0.5259084403514862
-0.42377156019210815
-0.34716951847076416
-0.37270188331604004
-0.29609984159469604
-0.29609984159469604
-0.3216347098350525
-0.3216347098350525
-0.1684281826019287
-0.09182614088058472
-0.21949779987335205
-0.34716951847076416
-0.34716951847076416
-0.2705650329589844
-0.29609984159469604
-0.34716951847076416
-0.34716951847076416
-0.3216347098350525
-0.4493063688278198
-0.4493063688278198
